{'config': {'data': {'train': [[[[65.78947368421052, 64.93506493506493, 63.29113924050633, 62.5, 60.72874493927125, 60.483870967741936, 59.7609561752988, 59.523809523809526, 59.28853754940712, 59.523809523809526, 59.523809523809526, 59.28853754940712, 58.13953488372093, 61.72839506172839, 64.93506493506493, 61.72839506172839, 64.65517241379311, 63.29113924050633, 62.5, 60.97560975609756, 61.47540983606557, 60.97560975609756, 60.24096385542169, 61.47540983606557, 61.224489795918366, 61.224489795918366, 61.47540983606557, 62.24066390041494, 59.523809523809526, 59.28853754940712, 60.483870967741936, 59.523809523809526, 58.8235294117647, 60.24096385542169, 60.483870967741936, 60.24096385542169, 60.483870967741936, 60.24096385542169, 59.28853754940712, 59.523809523809526, 58.36575875486381, 59.05511811023622, 59.523809523809526, 59.171597633136095, 58.13953488372093, 57.47126436781609, 57.915057915057915, 57.915057915057915, 57.25190839694657, 58.59375, 58.708414872798436, 60.0, 60.24096385542169, 61.224489795918366, 58.8235294117647, 59.523809523809526, 63.29113924050633, 61.98347107438016, 62.5, 64.1025641025641, 60.0, 59.28853754940712, 59.7609561752988, 57.47126436781609, 59.28853754940712, 59.523809523809526, 60.0, 59.7609561752988, 60.0, 60.72874493927125, 61.224489795918366, 58.8235294117647, 57.47126436781609, 61.72839506172839, 64.1025641025641, 59.7609561752988], 1], [[151.5151515151515, 150.0, 150.0, 151.5151515151515, 150.0, 148.5148514851485, 148.5148514851485, 150.0, 150.0, 150.0, 100.67114093959732, 100.67114093959732, 100.67114093959732, 150.0, 100.67114093959732, 148.5148514851485, 101.35135135135135, 148.5148514851485, 150.0, 150.0, 148.5148514851485, 148.5148514851485, 150.0, 148.5148514851485, 148.5148514851485, 101.35135135135135, 148.5148514851485, 148.5148514851485, 100.0, 101.35135135135135, 150.0, 150.0, 150.0, 148.5148514851485, 150.0, 148.5148514851485, 148.5148514851485, 148.5148514851485, 100.0, 100.0, 150.0, 148.5148514851485, 100.67114093959732, 148.5148514851485, 115.38461538461539, 100.33444816053512, 148.5148514851485, 148.5148514851485, 100.67114093959732, 100.0, 100.67114093959732, 100.67114093959732, 145.63106796116506, 133.92857142857142, 130.43478260869566, 133.92857142857142, 150.0, 150.0, 150.0, 150.0], 1], [[81.52173913043478, 70.09345794392523, 72.11538461538461, 72.81553398058253, 74.6268656716418, 73.89162561576354, 74.6268656716418, 75.75757575757575, 89.02077151335311, 76.92307692307692, 79.36507936507937, 81.08108108108108, 82.41758241758242, 82.41758241758242, 82.87292817679558, 82.87292817679558, 82.87292817679558, 99.33774834437087, 75.37688442211055, 77.31958762886597, 78.53403141361257, 79.7872340425532, 81.08108108108108, 88.75739644970415, 83.79888268156425, 86.20689655172414, 80.64516129032258, 80.64516129032258, 81.74386920980926, 78.125, 76.53061224489795, 75.75757575757575, 73.89162561576354, 72.46376811594203, 72.81553398058253, 72.46376811594203, 71.42857142857143, 71.09004739336493, 70.09345794392523, 71.77033492822966, 72.46376811594203, 73.17073170731707, 71.77033492822966, 71.77033492822966, 69.44444444444444, 65.64551422319475, 68.4931506849315, 74.6268656716418, 79.15567282321899, 74.25742574257426, 72.81553398058253, 76.53061224489795, 73.34963325183374, 74.25742574257426, 72.81553398058253, 66.07929515418502, 64.37768240343348, 60.72874493927125, 64.65517241379311, 62.76150627615063, 66.66666666666667, 65.78947368421052, 70.09345794392523, 70.75471698113208, 70.2576112412178, 70.09345794392523, 69.44444444444444, 62.5, 64.93506493506493, 69.44444444444444, 66.96428571428571, 65.78947368421052, 64.65517241379311, 68.18181818181819], 1], [[86.20689655172414, 95.54140127388536, 100.0, 87.46355685131195, 73.17073170731707, 72.46376811594203, 73.52941176470588, 71.77033492822966, 73.89162561576354, 69.44444444444444, 70.09345794392523, 70.09345794392523, 70.75471698113208, 71.42857142857143, 72.46376811594203, 70.4225352112676, 71.42857142857143, 70.4225352112676, 69.12442396313364, 71.42857142857143, 71.09004739336493, 68.4931506849315, 71.09004739336493, 70.4225352112676, 71.09004739336493, 72.11538461538461, 70.09345794392523, 71.42857142857143, 71.09004739336493, 72.11538461538461, 70.09345794392523, 68.80733944954129, 62.76150627615063, 62.24066390041494, 62.24066390041494, 61.98347107438016, 62.5, 63.02521008403362, 63.29113924050633, 63.29113924050633, 61.224489795918366, 60.72874493927125, 62.76150627615063, 63.29113924050633, 64.65517241379311, 66.3716814159292, 67.87330316742081, 68.18181818181819, 68.4931506849315, 67.56756756756756, 67.56756756756756, 66.66666666666667, 66.96428571428571, 66.66666666666667, 65.78947368421052, 65.78947368421052, 65.78947368421052, 64.93506493506493, 65.21739130434783, 65.21739130434783, 63.29113924050633, 66.815144766147, 66.3716814159292, 66.07929515418502, 67.26457399103138, 64.1025641025641, 64.1025641025641, 68.80733944954129, 71.09004739336493], 1], [[151.5151515151515, 156.25, 142.85714285714286, 145.63106796116506, 108.69565217391305, 100.0, 100.67114093959732, 101.35135135135135, 124.48132780082987, 104.8951048951049, 104.52961672473867, 100.67114093959732, 100.67114093959732, 100.0, 100.0, 100.67114093959732, 100.0, 100.67114093959732, 113.63636363636364, 122.44897959183673, 100.67114093959732, 107.9136690647482, 100.67114093959732, 102.04081632653062, 102.73972602739725, 142.85714285714286, 104.8951048951049, 102.04081632653062, 110.29411764705883, 148.5148514851485, 147.05882352941177, 143.54066985645932, 147.05882352941177, 148.5148514851485, 147.05882352941177, 141.50943396226415, 148.5148514851485, 144.23076923076923, 142.85714285714286, 128.2051282051282, 148.5148514851485, 115.38461538461539, 127.65957446808511, 100.67114093959732, 116.73151750972762, 129.87012987012986, 148.5148514851485, 121.95121951219512, 100.0, 103.80622837370242, 144.23076923076923, 100.0, 104.16666666666667, 107.9136690647482, 100.0, 145.63106796116506, 100.0, 142.85714285714286, 102.04081632653062, 100.67114093959732, 148.5148514851485, 148.5148514851485, 150.0, 147.05882352941177, 148.5148514851485, 142.85714285714286, 150.0, 100.67114093959732, 145.63106796116506, 100.67114093959732, 150.0, 142.85714285714286, 145.63106796116506, 147.05882352941177], 1], [[74.07407407407408, 74.6268656716418, 67.56756756756756, 64.1025641025641, 61.47540983606557, 60.72874493927125, 60.483870967741936, 60.72874493927125, 62.76150627615063, 64.93506493506493, 76.53061224489795, 69.44444444444444, 70.4225352112676, 71.09004739336493, 67.87330316742081, 64.93506493506493, 66.3716814159292, 64.37768240343348, 61.224489795918366, 62.5, 62.5, 64.93506493506493, 60.24096385542169, 58.8235294117647, 58.8235294117647, 65.50218340611353, 56.390977443609025, 56.17977528089887, 56.074766355140184, 53.380782918149464, 54.151624548736464, 59.523809523809526, 55.97014925373134, 54.844606946983546, 54.74452554744526, 55.55555555555556, 55.762081784386616, 57.25190839694657, 58.59375, 57.69230769230769, 57.69230769230769, 57.25190839694657, 57.58157389635317, 58.02707930367505, 70.09345794392523, 66.66666666666667, 63.02521008403362, 59.523809523809526, 59.28853754940712, 64.65517241379311, 55.97014925373134, 55.55555555555556, 55.55555555555556, 54.74452554744526, 53.85996409335727, 56.17977528089887, 59.28853754940712, 64.65517241379311, 60.97560975609756, 57.25190839694657, 57.25190839694657, 56.60377358490566], 1], [[69.44444444444444, 69.76744186046511, 68.18181818181819, 68.80733944954129, 68.4931506849315, 68.80733944954129, 68.80733944954129, 68.80733944954129, 68.4931506849315, 68.4931506849315, 68.18181818181819, 68.18181818181819, 68.18181818181819, 67.87330316742081, 78.53403141361257, 67.87330316742081, 66.96428571428571, 67.26457399103138, 67.87330316742081, 68.18181818181819, 68.18181818181819, 67.87330316742081, 67.56756756756756, 67.26457399103138, 67.26457399103138, 67.26457399103138, 66.66666666666667, 66.96428571428571, 66.3716814159292, 66.3716814159292, 65.50218340611353, 65.78947368421052, 66.66666666666667, 66.07929515418502, 65.50218340611353, 65.50218340611353, 65.78947368421052, 66.96428571428571, 66.66666666666667, 66.96428571428571, 66.66666666666667, 65.21739130434783, 64.93506493506493, 64.93506493506493, 64.93506493506493, 64.37768240343348, 64.65517241379311, 64.37768240343348, 64.1025641025641, 64.37768240343348, 64.1025641025641, 64.1025641025641, 68.18181818181819, 69.12442396313364, 64.1025641025641, 63.559322033898304, 63.829787234042556, 64.37768240343348, 64.1025641025641, 63.559322033898304, 63.829787234042556, 64.1025641025641, 64.1025641025641, 64.37768240343348, 64.1025641025641, 64.1025641025641, 63.559322033898304, 63.829787234042556, 65.21739130434783, 64.93506493506493, 66.07929515418502, 64.65517241379311, 65.21739130434783, 67.56756756756756, 68.18181818181819, 68.18181818181819, 67.56756756756756, 67.87330316742081, 68.18181818181819, 68.18181818181819, 68.4931506849315, 68.4931506849315, 68.4931506849315, 68.80733944954129, 68.80733944954129, 69.12442396313364, 68.80733944954129, 66.07929515418502], 1], [[148.5148514851485, 100.67114093959732, 100.0, 102.04081632653062, 101.35135135135135, 102.04081632653062, 100.0, 147.05882352941177, 101.35135135135135, 120.96774193548387, 119.04761904761905, 100.67114093959732, 142.85714285714286, 115.38461538461539, 100.67114093959732, 100.0, 100.0, 100.0, 100.67114093959732, 104.52961672473867, 100.67114093959732, 100.0, 141.50943396226415, 104.16666666666667, 143.54066985645932, 136.36363636363637, 101.35135135135135, 100.0, 100.67114093959732, 100.67114093959732, 100.0, 100.0, 100.67114093959732, 100.0, 104.8951048951049, 100.67114093959732, 100.67114093959732, 141.50943396226415, 100.67114093959732, 103.44827586206897, 104.8951048951049, 101.35135135135135, 101.35135135135135, 100.67114093959732, 123.96694214876032, 100.67114093959732, 150.0, 150.0, 148.5148514851485, 115.38461538461539, 100.0, 125.0, 147.05882352941177, 148.5148514851485, 148.5148514851485, 148.5148514851485, 150.0, 148.5148514851485, 148.5148514851485, 100.67114093959732, 100.0, 101.35135135135135, 103.09278350515464, 102.73972602739725, 122.95081967213115, 101.35135135135135, 147.05882352941177, 150.0, 150.0, 148.5148514851485, 148.5148514851485], 1], [[66.07929515418502, 57.915057915057915, 57.47126436781609, 57.69230769230769, 57.47126436781609, 57.47126436781609, 57.47126436781609, 56.81818181818182, 57.034220532319395, 57.034220532319395, 56.390977443609025, 56.17977528089887, 55.97014925373134, 55.762081784386616, 55.35055350553505, 57.58157389635317, 57.25190839694657, 58.13953488372093, 60.97560975609756, 60.97560975609756, 60.483870967741936, 60.0, 58.8235294117647, 57.47126436781609, 57.47126436781609, 55.97014925373134, 54.34782608695652, 55.14705882352941, 53.380782918149464, 54.151624548736464, 55.14705882352941, 54.94505494505494, 54.54545454545455, 55.97014925373134, 81.9672131147541, 63.29113924050633, 57.69230769230769, 56.390977443609025, 53.380782918149464, 53.003533568904594, 54.74452554744526, 55.762081784386616, 55.762081784386616, 56.60377358490566, 57.47126436781609, 57.915057915057915, 58.8235294117647, 58.36575875486381, 58.8235294117647, 59.28853754940712, 59.28853754940712, 59.7609561752988, 58.13953488372093, 58.8235294117647, 58.59375, 57.915057915057915, 60.24096385542169, 58.25242718446602, 57.47126436781609, 58.36575875486381, 58.36575875486381, 57.69230769230769, 60.0, 57.25190839694657, 56.390977443609025, 56.074766355140184, 54.74452554744526, 54.74452554744526, 54.94505494505494, 57.47126436781609, 55.14705882352941, 53.191489361702125, 52.083333333333336, 53.191489361702125, 56.390977443609025, 57.69230769230769, 56.390977443609025, 56.390977443609025, 57.034220532319395, 58.13953488372093, 55.762081784386616, 56.17977528089887, 55.35055350553505, 55.14705882352941, 55.35055350553505, 55.97014925373134, 60.24096385542169, 57.47126436781609, 57.25190839694657, 58.59375, 62.5, 60.0, 60.483870967741936, 60.97560975609756, 62.5, 61.47540983606557, 61.72839506172839, 61.72839506172839, 61.47540983606557, 61.72839506172839, 63.02521008403362, 62.24066390041494], 1], [[77.72020725388602, 65.50218340611353, 65.21739130434783, 65.21739130434783, 65.50218340611353, 65.50218340611353, 65.21739130434783, 64.65517241379311, 64.1025641025641, 63.29113924050633, 63.559322033898304, 63.29113924050633, 62.76150627615063, 63.02521008403362, 60.24096385542169, 60.72874493927125, 62.5, 65.21739130434783, 70.4225352112676, 69.76744186046511, 69.12442396313364, 66.96428571428571, 64.93506493506493, 63.829787234042556, 63.29113924050633, 66.3716814159292, 64.37768240343348, 60.483870967741936, 59.7609561752988, 60.483870967741936, 59.7609561752988, 58.8235294117647, 59.523809523809526, 59.7609561752988, 59.523809523809526, 59.05511811023622, 59.05511811023622, 60.483870967741936, 59.7609561752988, 59.7609561752988, 60.0, 61.72839506172839, 60.97560975609756, 62.76150627615063, 62.24066390041494, 60.97560975609756], 1], [[148.5148514851485, 141.50943396226415, 100.67114093959732, 147.05882352941177, 100.0, 141.50943396226415, 102.04081632653062, 100.0, 132.7433628318584, 111.94029850746269, 111.11111111111111, 111.94029850746269, 142.85714285714286, 150.0, 150.0, 150.0, 150.0, 145.63106796116506, 147.05882352941177, 148.5148514851485, 148.5148514851485, 122.95081967213115, 94.9367088607595, 87.20930232558139, 96.15384615384616, 95.54140127388536, 142.85714285714286, 148.5148514851485, 144.23076923076923, 101.35135135135135, 101.35135135135135, 148.5148514851485, 101.35135135135135, 148.5148514851485, 150.0, 148.5148514851485, 106.38297872340425, 109.48905109489051, 104.8951048951049, 111.11111111111111, 100.67114093959732, 126.05042016806723, 100.0, 100.0, 142.85714285714286, 135.13513513513513, 100.0, 100.0, 100.0, 100.0, 100.0, 100.0, 100.0, 100.67114093959732, 100.0, 100.0, 101.35135135135135, 100.67114093959732, 121.95121951219512, 99.33774834437087, 99.33774834437087, 100.0, 90.6344410876133, 84.26966292134831, 96.15384615384616, 95.54140127388536, 100.67114093959732, 100.0, 148.5148514851485, 104.16666666666667, 101.35135135135135, 147.05882352941177, 150.0, 120.96774193548387, 102.04081632653062, 100.67114093959732, 100.0, 102.04081632653062], 1], [[147.05882352941177, 104.16666666666667, 138.88888888888889, 142.85714285714286, 103.80622837370242, 105.63380281690141, 148.5148514851485, 148.5148514851485, 148.5148514851485, 148.5148514851485, 150.0, 145.63106796116506, 126.05042016806723, 148.5148514851485, 148.5148514851485, 150.0, 150.0, 150.0, 148.5148514851485, 150.0, 150.0, 148.5148514851485, 123.96694214876032, 100.0, 132.7433628318584, 147.05882352941177, 148.5148514851485, 148.5148514851485, 141.50943396226415, 150.0, 145.63106796116506, 145.63106796116506, 150.0, 150.0, 150.0, 151.5151515151515, 151.5151515151515, 150.0, 148.5148514851485, 147.05882352941177, 148.5148514851485, 150.0, 148.5148514851485, 150.0, 124.48132780082987, 148.5148514851485, 150.0, 150.0, 148.5148514851485, 150.0, 148.5148514851485, 148.5148514851485, 101.35135135135135, 150.0, 150.0, 150.0, 149.2537313432836, 150.0, 150.0, 150.0, 150.0, 123.96694214876032, 148.5148514851485, 101.35135135135135, 148.5148514851485, 148.5148514851485, 148.5148514851485], 1], [[89.82035928143712, 90.36144578313252, 92.02453987730061, 89.28571428571429, 90.36144578313252, 88.23529411764706, 87.71929824561404, 89.28571428571429, 88.75739644970415, 91.46341463414635, 93.75, 93.75, 94.9367088607595, 96.15384615384616, 97.40259740259741, 96.7741935483871, 96.15384615384616, 93.75, 91.46341463414635, 93.16770186335404, 89.82035928143712, 88.23529411764706, 87.20930232558139, 85.22727272727273, 83.33333333333333, 84.7457627118644, 83.79888268156425, 83.79888268156425, 81.52173913043478, 83.79888268156425, 83.79888268156425, 81.9672131147541, 80.21390374331551, 79.7872340425532, 77.72020725388602, 76.92307692307692, 80.64516129032258, 78.53403141361257, 78.94736842105263, 80.64516129032258, 77.31958762886597, 77.31958762886597, 77.31958762886597, 77.31958762886597, 76.92307692307692, 76.53061224489795, 76.92307692307692, 76.53061224489795, 75.75757575757575, 74.25742574257426, 74.25742574257426, 73.89162561576354, 73.89162561576354, 74.25742574257426, 73.17073170731707, 75.0, 74.25742574257426, 74.6268656716418, 77.72020725388602, 75.75757575757575, 74.6268656716418, 74.25742574257426, 75.0, 76.53061224489795, 78.53403141361257, 76.14213197969544, 73.89162561576354, 72.81553398058253, 73.52941176470588, 73.52941176470588, 73.52941176470588, 73.89162561576354, 73.17073170731707, 77.72020725388602, 74.6268656716418, 71.77033492822966, 72.46376811594203, 75.37688442211055, 73.52941176470588, 73.17073170731707, 73.89162561576354, 72.11538461538461, 72.46376811594203, 72.46376811594203, 72.11538461538461, 72.46376811594203, 76.14213197969544, 72.46376811594203, 70.75471698113208, 71.42857142857143, 69.76744186046511, 70.4225352112676, 70.09345794392523, 71.09004739336493, 70.4225352112676], 1], [[71.09004739336493, 70.75471698113208, 68.4931506849315, 66.96428571428571, 66.96428571428571, 66.96428571428571, 66.96428571428571, 66.07929515418502, 66.66666666666667, 66.3716814159292, 66.3716814159292, 66.66666666666667, 66.3716814159292, 66.3716814159292, 67.56756756756756, 68.3371298405467, 68.64988558352402, 70.09345794392523, 69.44444444444444, 70.4225352112676, 69.44444444444444, 66.96428571428571, 65.78947368421052, 65.78947368421052, 65.21739130434783, 65.21739130434783, 65.78947368421052, 67.56756756756756, 68.4931506849315, 69.44444444444444, 70.75471698113208, 70.75471698113208, 69.44444444444444, 69.12442396313364, 69.12442396313364, 70.4225352112676, 70.75471698113208, 70.75471698113208, 69.44444444444444, 71.09004739336493, 68.4931506849315, 71.09004739336493, 66.96428571428571, 66.66666666666667, 71.77033492822966, 68.4931506849315, 69.44444444444444, 67.26457399103138, 68.80733944954129, 69.12442396313364, 69.12442396313364, 68.80733944954129, 69.12442396313364, 69.44444444444444, 69.44444444444444, 65.50218340611353, 65.50218340611353, 65.50218340611353, 66.07929515418502, 67.56756756756756, 65.78947368421052, 65.21739130434783, 64.93506493506493, 69.44444444444444, 66.3716814159292, 68.80733944954129, 69.12442396313364, 69.12442396313364, 68.4931506849315, 72.11538461538461, 72.11538461538461, 72.81553398058253, 73.17073170731707, 66.3716814159292, 66.3716814159292, 66.66666666666667, 67.26457399103138, 67.26457399103138, 67.56756756756756, 67.56756756756756, 68.4931506849315, 69.12442396313364, 70.4225352112676, 71.09004739336493, 71.25890736342043, 71.42857142857143, 71.77033492822966, 79.36507936507937, 70.09345794392523, 70.75471698113208, 70.75471698113208, 71.42857142857143, 72.11538461538461, 71.77033492822966, 71.77033492822966], 1], [[72.81553398058253, 72.11538461538461, 72.11538461538461, 72.81553398058253, 73.17073170731707, 73.52941176470588, 150.0, 151.5151515151515, 141.50943396226415, 110.29411764705883, 104.8951048951049, 142.85714285714286, 113.63636363636364, 100.0, 109.48905109489051, 150.0, 89.28571428571429, 82.41758241758242, 73.89162561576354, 72.46376811594203, 73.17073170731707, 72.11538461538461, 72.11538461538461, 72.11538461538461, 72.46376811594203, 72.11538461538461, 72.11538461538461, 72.46376811594203, 72.46376811594203, 72.46376811594203, 72.46376811594203, 72.46376811594203, 72.11538461538461, 69.44444444444444, 70.09345794392523, 70.75471698113208, 70.75471698113208, 71.42857142857143, 70.09345794392523, 69.76744186046511, 71.09004739336493, 71.09004739336493, 70.75471698113208, 70.75471698113208, 70.75471698113208, 70.4225352112676, 70.4225352112676, 69.76744186046511, 69.76744186046511, 69.44444444444444, 69.12442396313364, 69.44444444444444, 69.12442396313364, 69.12442396313364, 69.12442396313364, 69.44444444444444, 69.12442396313364, 66.3716814159292, 80.21390374331551, 71.42857142857143, 68.80733944954129, 69.44444444444444, 70.09345794392523, 67.87330316742081, 67.26457399103138, 67.56756756756756, 67.87330316742081, 68.80733944954129, 69.44444444444444, 70.4225352112676, 70.09345794392523, 69.12442396313364, 67.26457399103138, 66.66666666666667, 66.66666666666667, 66.96428571428571, 67.26457399103138, 66.96428571428571, 69.76744186046511, 71.42857142857143, 71.42857142857143, 71.77033492822966, 71.09004739336493, 70.75471698113208, 69.76744186046511, 68.18181818181819, 67.26457399103138, 67.26457399103138, 150.0, 150.0, 150.0, 100.67114093959732, 150.0, 151.5151515151515, 148.5148514851485], 1], [[150.0, 150.0, 150.0, 150.0, 147.05882352941177, 145.63106796116506, 101.35135135135135, 147.05882352941177, 148.5148514851485, 147.05882352941177, 100.0, 100.67114093959732, 100.67114093959732, 148.5148514851485, 150.0, 147.05882352941177, 114.50381679389314, 147.05882352941177, 147.05882352941177, 147.05882352941177, 102.73972602739725, 100.67114093959732, 100.67114093959732, 102.38907849829351, 145.63106796116506, 102.04081632653062, 148.5148514851485, 101.35135135135135, 100.0, 102.73972602739725, 102.73972602739725, 147.05882352941177, 148.5148514851485, 147.05882352941177, 148.5148514851485, 141.50943396226415, 147.05882352941177, 148.5148514851485, 141.50943396226415, 150.0, 150.0, 150.0, 150.0, 150.0, 148.5148514851485, 148.5148514851485, 150.0, 150.0, 148.5148514851485, 148.5148514851485, 148.5148514851485, 101.35135135135135, 101.35135135135135, 148.5148514851485, 150.0, 150.0, 148.5148514851485, 150.0, 145.63106796116506, 145.63106796116506, 147.05882352941177, 147.05882352941177, 148.5148514851485, 147.05882352941177, 100.0, 148.5148514851485, 150.0, 148.5148514851485, 145.63106796116506, 102.04081632653062, 103.44827586206897], 1], [[150.0, 148.5148514851485, 150.0, 150.0, 150.0, 150.0, 150.0, 100.0, 148.5148514851485, 148.5148514851485, 102.04081632653062, 101.35135135135135, 100.67114093959732, 147.05882352941177, 142.85714285714286, 110.7011070110701, 100.67114093959732, 126.05042016806723, 150.0, 147.05882352941177, 147.05882352941177, 114.50381679389314, 150.0, 141.50943396226415, 150.0, 100.0, 150.0, 148.5148514851485, 148.5148514851485, 148.5148514851485, 132.15859030837004, 100.67114093959732, 102.04081632653062, 100.0, 113.63636363636364, 100.67114093959732, 104.52961672473867, 103.44827586206897, 105.26315789473684, 104.16666666666667, 104.8951048951049, 104.8951048951049, 150.0, 150.0, 150.0, 150.0, 125.0, 122.95081967213115, 125.0, 125.0, 104.16666666666667, 104.8951048951049, 104.8951048951049, 104.8951048951049], 0], [[150.0, 150.0, 147.05882352941177, 104.8951048951049, 140.18691588785046, 148.5148514851485, 148.5148514851485, 148.5148514851485, 148.5148514851485, 150.0, 150.0, 150.0, 148.5148514851485, 150.0, 148.5148514851485, 105.63380281690141, 112.78195488721805, 150.0, 150.0, 150.0, 150.0, 147.05882352941177, 148.5148514851485, 150.0, 148.5148514851485, 100.67114093959732, 147.05882352941177, 150.0, 150.0, 150.0, 142.85714285714286, 148.5148514851485, 148.5148514851485, 150.0, 106.38297872340425, 101.35135135135135, 148.5148514851485, 101.35135135135135, 150.0, 150.0, 152.28426395939087, 148.5148514851485, 145.63106796116506, 150.0, 148.5148514851485, 105.63380281690141, 150.0, 105.63380281690141, 120.48192771084338, 145.63106796116506, 150.0, 150.0, 150.0, 150.0, 150.0], 0], [[79.7872340425532, 73.89162561576354, 70.75471698113208, 71.42857142857143, 71.42857142857143, 74.6268656716418, 75.37688442211055, 68.96551724137932, 71.09004739336493, 68.96551724137932, 67.26457399103138, 66.3716814159292, 66.07929515418502, 64.93506493506493, 64.93506493506493, 67.41573033707866, 69.44444444444444, 72.11538461538461, 73.17073170731707, 70.09345794392523, 63.29113924050633, 65.78947368421052, 69.12442396313364, 64.51612903225806, 63.29113924050633, 67.56756756756756, 67.26457399103138, 67.87330316742081, 68.80733944954129, 67.87330316742081, 68.18181818181819, 69.12442396313364, 69.44444444444444, 62.24066390041494, 66.96428571428571, 67.87330316742081, 54.34782608695652, 64.93506493506493, 67.56756756756756, 65.50218340611353, 64.1025641025641, 56.60377358490566, 61.98347107438016, 64.93506493506493, 68.18181818181819, 60.483870967741936, 55.55555555555556, 53.9568345323741, 54.6448087431694, 53.9568345323741, 52.816901408450704, 54.054054054054056, 54.151624548736464, 54.54545454545455, 53.9568345323741, 67.41573033707866, 56.60377358490566, 63.559322033898304, 59.7609561752988, 62.5, 56.390977443609025, 50.847457627118644, 54.54545454545455, 52.26480836236934, 51.36986301369863, 51.724137931034484, 56.17977528089887, 55.97014925373134, 58.36575875486381, 60.97560975609756, 59.523809523809526, 63.424947145877375, 63.559322033898304, 64.79481641468682, 61.98347107438016, 66.66666666666667, 68.18181818181819, 63.29113924050633, 56.49717514124294, 54.151624548736464, 58.708414872798436, 56.81818181818182, 56.60377358490566, 57.69230769230769, 57.69230769230769, 61.224489795918366, 64.1025641025641, 64.1025641025641, 62.76150627615063], 1], [[150.0, 147.05882352941177, 106.38297872340425, 104.8951048951049, 101.35135135135135, 104.8951048951049, 100.0, 138.88888888888889, 100.67114093959732, 138.88888888888889, 147.05882352941177, 141.50943396226415, 137.61467889908258, 137.61467889908258, 105.63380281690141, 101.35135135135135, 150.0, 150.0, 150.0, 150.0, 150.0, 150.0, 150.0, 150.0, 150.0, 100.67114093959732, 101.35135135135135, 101.35135135135135, 100.67114093959732, 147.05882352941177, 100.67114093959732, 100.67114093959732, 140.18691588785046, 148.5148514851485, 101.69491525423729, 100.67114093959732, 144.23076923076923, 148.5148514851485, 150.0, 150.0, 150.0, 148.5148514851485, 148.5148514851485, 148.5148514851485, 148.5148514851485, 148.5148514851485, 150.0, 150.0, 150.0, 150.0, 150.0, 148.5148514851485, 100.67114093959732, 150.0, 148.5148514851485, 99.33774834437087, 99.66777408637874, 100.67114093959732, 150.0, 150.0, 100.67114093959732, 100.67114093959732, 100.0, 150.0, 150.0, 150.0, 150.0, 148.5148514851485, 134.52914798206277, 148.5148514851485, 102.73972602739725, 116.73151750972762, 138.24884792626727, 104.8951048951049, 105.63380281690141, 100.67114093959732, 101.35135135135135, 109.0909090909091, 141.50943396226415, 150.0, 150.0, 148.5148514851485, 147.7832512315271, 150.0, 100.67114093959732, 150.0, 148.5148514851485, 100.67114093959732, 147.05882352941177, 150.0, 138.88888888888889, 137.61467889908258, 148.5148514851485, 150.0, 150.0, 150.0, 150.0, 115.83011583011583, 142.85714285714286, 148.5148514851485, 140.8450704225352, 148.5148514851485, 150.0, 147.7832512315271, 100.0, 111.11111111111111, 148.5148514851485, 150.0, 148.5148514851485], 1], [[151.5151515151515, 150.0, 150.0, 150.0, 150.0, 101.01010101010101, 100.67114093959732, 100.67114093959732, 100.0, 100.67114093959732, 148.5148514851485, 148.5148514851485, 123.96694214876032, 100.67114093959732, 101.35135135135135, 100.67114093959732, 148.5148514851485, 141.50943396226415, 148.5148514851485, 148.5148514851485, 150.0, 148.5148514851485, 148.5148514851485, 148.5148514851485, 150.0, 148.5148514851485, 100.67114093959732, 100.0, 148.5148514851485, 150.0, 150.0, 150.0, 150.0, 148.5148514851485, 150.0, 150.0, 117.6470588235294, 101.35135135135135, 143.54066985645932, 148.5148514851485, 100.67114093959732, 148.5148514851485, 150.0, 150.0, 150.0, 150.0, 100.67114093959732, 144.23076923076923, 148.5148514851485, 150.0, 150.0, 98.03921568627452, 99.66777408637874, 150.0, 100.67114093959732, 149.2537313432836, 150.0, 117.6470588235294, 124.48132780082987, 146.34146341463415, 148.5148514851485, 100.67114093959732, 148.5148514851485, 100.67114093959732, 148.5148514851485, 100.67114093959732, 101.35135135135135, 148.5148514851485, 150.0, 148.5148514851485, 148.5148514851485, 121.95121951219512, 116.27906976744185, 136.36363636363637, 148.5148514851485, 148.5148514851485, 148.5148514851485, 144.92753623188406, 148.5148514851485, 140.18691588785046, 150.0, 150.0, 83.79888268156425, 100.0, 100.67114093959732], 1], [[87.20930232558139, 84.26966292134831, 77.72020725388602, 76.92307692307692, 75.75757575757575, 74.6268656716418, 73.52941176470588, 73.89162561576354, 73.52941176470588, 72.81553398058253, 72.11538461538461, 68.80733944954129, 69.44444444444444, 72.81553398058253, 72.11538461538461, 68.80733944954129, 67.56756756756756, 66.66666666666667, 66.3716814159292, 66.07929515418502, 63.29113924050633, 61.98347107438016, 61.98347107438016, 64.93506493506493, 63.559322033898304, 63.02521008403362, 62.5, 63.02521008403362, 59.28853754940712, 59.880239520958085, 59.523809523809526, 58.708414872798436, 64.1025641025641, 71.09004739336493, 71.42857142857143, 72.11538461538461, 67.26457399103138, 67.56756756756756, 67.56756756756756, 64.37768240343348, 66.96428571428571, 64.93506493506493, 65.78947368421052, 64.65517241379311, 64.93506493506493, 64.37768240343348, 61.98347107438016, 60.483870967741936, 60.72874493927125, 61.60164271047228, 61.47540983606557, 62.76150627615063, 64.1025641025641, 68.18181818181819, 70.58823529411765, 68.80733944954129, 70.75471698113208, 67.56756756756756, 68.18181818181819, 63.829787234042556, 60.24096385542169, 61.98347107438016, 62.76150627615063, 65.50218340611353, 63.829787234042556, 61.224489795918366, 62.11180124223603, 62.76150627615063], 0], [[76.14213197969544, 72.81553398058253, 83.33333333333333, 70.4225352112676, 63.02521008403362, 63.1578947368421, 63.02521008403362, 62.5, 61.47540983606557, 63.02521008403362, 63.02521008403362, 64.1025641025641, 64.93506493506493, 64.65517241379311, 65.50218340611353, 65.21739130434783, 75.0, 74.44168734491315, 66.96428571428571, 63.02521008403362, 63.559322033898304, 62.5, 63.02521008403362, 62.24066390041494, 62.76150627615063, 61.98347107438016, 62.5, 61.98347107438016, 60.97560975609756, 60.72874493927125, 60.97560975609756, 67.87330316742081, 71.09004739336493, 73.89162561576354, 76.14213197969544, 68.3371298405467, 64.1025641025641, 60.97560975609756, 61.224489795918366, 61.224489795918366, 60.72874493927125, 60.72874493927125, 60.24096385542169, 60.72874493927125, 60.483870967741936, 60.24096385542169, 60.483870967741936, 59.7609561752988, 60.24096385542169, 58.8235294117647, 60.483870967741936, 60.72874493927125, 60.0, 60.483870967741936, 69.44444444444444, 67.56756756756756, 66.07929515418502, 64.1025641025641, 66.66666666666667], 1], [[151.5151515151515, 150.0, 140.18691588785046, 145.63106796116506, 148.5148514851485, 102.38907849829351, 99.33774834437087, 148.5148514851485, 150.0, 151.5151515151515, 147.05882352941177, 148.5148514851485, 141.50943396226415, 144.23076923076923, 147.05882352941177, 148.5148514851485, 114.50381679389314, 100.67114093959732, 100.33444816053512, 140.18691588785046, 117.1875, 113.63636363636364, 150.0, 150.0, 150.0, 150.0, 150.0, 150.0, 150.0, 150.0, 100.67114093959732, 148.5148514851485, 102.73972602739725, 146.34146341463415, 150.0, 148.5148514851485, 148.5148514851485, 101.35135135135135, 100.0, 150.0, 148.5148514851485, 128.2051282051282, 148.5148514851485, 147.05882352941177, 140.18691588785046, 141.50943396226415, 147.05882352941177, 138.88888888888889, 105.63380281690141, 104.8951048951049, 99.33774834437087, 135.13513513513513, 147.05882352941177, 148.5148514851485, 147.05882352941177, 117.1875], 1], [[86.70520231213872, 81.9672131147541, 76.92307692307692, 75.37688442211055, 75.37688442211055, 73.89162561576354, 73.52941176470588, 69.76744186046511, 72.11538461538461, 72.46376811594203, 72.11538461538461, 68.64988558352402, 59.05511811023622, 62.76150627615063, 64.1025641025641, 65.50218340611353, 65.50218340611353, 64.37768240343348, 61.98347107438016, 63.02521008403362, 63.69426751592356, 61.47540983606557, 62.5, 61.72839506172839, 58.8235294117647, 59.05511811023622, 59.523809523809526, 61.72839506172839, 61.34969325153374, 60.24096385542169, 59.523809523809526, 61.47540983606557, 61.47540983606557, 73.52941176470588, 53.191489361702125, 51.36986301369863, 50.847457627118644, 51.36986301369863, 50.847457627118644, 53.003533568904594, 52.816901408450704, 52.63157894736842, 53.57142857142857, 54.34782608695652, 54.54545454545455, 53.9568345323741, 54.151624548736464, 54.151624548736464, 53.9568345323741, 54.54545454545455, 59.523809523809526, 66.66666666666667, 61.224489795918366, 63.29113924050633, 62.76150627615063, 61.47540983606557, 58.59375, 57.25190839694657, 58.13953488372093, 57.915057915057915, 57.034220532319395, 57.69230769230769], 1], [[75.75757575757575, 72.46376811594203, 69.76744186046511, 68.18181818181819, 65.78947368421052, 64.93506493506493, 62.5, 62.893081761006286, 63.559322033898304, 61.72839506172839, 63.29113924050633, 68.4931506849315, 68.80733944954129, 61.224489795918366, 65.21739130434783, 67.56756756756756, 66.07929515418502, 69.76744186046511, 65.21739130434783, 64.23982869379014, 65.78947368421052, 63.829787234042556, 65.21739130434783, 68.18181818181819, 65.0759219088937, 55.97014925373134, 58.59375, 61.98347107438016, 61.47540983606557, 62.5, 63.1578947368421, 64.93506493506493, 62.5, 65.50218340611353, 55.35055350553505, 55.762081784386616, 62.5, 67.56756756756756, 60.0, 56.81818181818182, 57.25190839694657, 59.28853754940712, 61.224489795918366, 59.7609561752988, 59.523809523809526, 59.05511811023622, 59.05511811023622, 58.8235294117647, 61.60164271047228, 66.815144766147, 76.72634271099744, 58.59375, 61.98347107438016, 58.8235294117647, 55.762081784386616, 64.51612903225806, 57.034220532319395, 60.97560975609756, 64.1025641025641, 63.559322033898304, 64.93506493506493, 59.7609561752988], 1], [[64.37768240343348, 61.98347107438016, 59.7609561752988, 60.0, 60.72874493927125, 59.7609561752988, 56.17977528089887, 54.94505494505494, 54.34782608695652, 55.248618784530386, 55.14705882352941, 60.0, 57.47126436781609, 63.559322033898304, 58.36575875486381, 58.8235294117647, 56.17977528089887, 58.36575875486381, 58.36575875486381, 54.54545454545455, 53.763440860215056, 57.80346820809248, 60.72874493927125, 53.763440860215056, 55.35055350553505, 55.865921787709496, 56.28517823639775, 60.483870967741936, 60.483870967741936, 60.97560975609756, 61.47540983606557, 61.98347107438016, 61.98347107438016, 62.24066390041494, 62.76150627615063, 63.29113924050633, 58.59375, 54.4464609800363, 53.380782918149464, 54.54545454545455, 56.390977443609025, 54.844606946983546, 54.34782608695652, 55.14705882352941, 54.34782608695652, 55.35055350553505, 53.763440860215056, 57.25190839694657, 59.7609561752988, 53.57142857142857, 54.54545454545455, 57.69230769230769, 58.8235294117647, 60.483870967741936, 54.94505494505494, 56.81818181818182, 80.64516129032258, 55.762081784386616, 55.35055350553505, 57.034220532319395, 54.151624548736464, 54.74452554744526, 55.14705882352941, 54.94505494505494, 55.762081784386616, 56.17977528089887, 55.762081784386616, 57.034220532319395], 1], [[78.125, 70.75471698113208, 70.75471698113208, 72.81553398058253, 70.4225352112676, 70.4225352112676, 69.12442396313364, 68.80733944954129, 67.87330316742081, 68.18181818181819, 67.26457399103138, 65.78947368421052, 65.50218340611353, 66.3716814159292, 67.56756756756756, 66.66666666666667, 67.26457399103138, 69.76744186046511, 66.51884700665188, 68.4931506849315, 67.56756756756756, 66.07929515418502, 66.3716814159292, 64.65517241379311, 65.50218340611353, 64.51612903225806, 65.50218340611353, 64.93506493506493, 65.21739130434783, 64.37768240343348, 63.829787234042556, 63.559322033898304, 65.21739130434783, 65.50218340611353, 67.26457399103138, 62.24066390041494, 69.12442396313364, 70.4225352112676, 61.47540983606557, 61.98347107438016, 62.5, 62.76150627615063, 62.76150627615063, 63.02521008403362, 58.13953488372093, 60.483870967741936, 61.224489795918366, 61.47540983606557, 61.72839506172839, 59.28853754940712, 64.1025641025641, 65.21739130434783, 63.559322033898304, 61.72839506172839, 60.24096385542169, 59.28853754940712, 62.76150627615063, 65.50218340611353, 61.224489795918366, 61.72839506172839, 60.483870967741936, 59.7609561752988, 60.0, 59.7609561752988, 59.880239520958085, 58.36575875486381, 60.0, 60.24096385542169, 60.36217303822938, 62.76150627615063, 65.21739130434783, 64.65517241379311, 63.29113924050633, 64.1025641025641, 65.21739130434783, 63.829787234042556, 64.1025641025641, 60.120240480961925, 62.24066390041494, 62.76150627615063, 62.893081761006286, 62.76150627615063, 62.24066390041494, 62.5, 62.5, 62.24066390041494, 62.76150627615063, 61.98347107438016, 61.98347107438016, 61.72839506172839, 61.98347107438016, 61.98347107438016, 61.09979633401222, 54.34782608695652, 64.93506493506493, 63.559322033898304], 1], [[147.05882352941177, 131.00436681222706, 127.65957446808511, 148.5148514851485, 148.5148514851485, 150.0, 138.88888888888889, 148.5148514851485, 150.0, 144.23076923076923, 138.88888888888889, 148.5148514851485, 106.38297872340425, 128.2051282051282, 140.18691588785046, 106.00706713780919, 148.5148514851485, 100.67114093959732, 148.5148514851485, 147.05882352941177, 145.63106796116506, 127.11864406779661, 150.0, 102.73972602739725, 142.85714285714286, 148.5148514851485, 148.5148514851485, 150.0, 141.50943396226415, 150.0, 147.7832512315271, 150.0, 147.05882352941177, 150.0, 150.0, 148.5148514851485, 148.5148514851485, 148.5148514851485, 150.0, 148.5148514851485, 137.61467889908258, 148.5148514851485, 137.61467889908258, 148.5148514851485, 150.0, 147.05882352941177, 141.50943396226415, 148.5148514851485, 138.88888888888889, 132.7433628318584, 137.61467889908258, 140.18691588785046, 148.5148514851485, 148.5148514851485, 120.0, 150.0, 150.0, 148.5148514851485, 150.0, 150.0, 103.44827586206897, 148.5148514851485, 148.5148514851485, 148.5148514851485, 150.0, 131.57894736842104, 148.5148514851485, 148.5148514851485, 148.5148514851485, 148.5148514851485, 147.05882352941177, 148.5148514851485, 150.0, 153.0612244897959, 151.5151515151515, 151.5151515151515, 150.0, 150.0, 150.0, 151.5151515151515, 150.0, 148.5148514851485, 150.0, 150.0, 150.0, 148.5148514851485, 150.0, 148.5148514851485, 150.0, 150.0, 150.0, 150.0, 150.0, 144.23076923076923, 150.0, 148.5148514851485, 150.0, 150.0, 150.0, 104.8951048951049, 148.5148514851485, 123.45679012345678, 101.69491525423729], 1], [[151.5151515151515, 66.66666666666667, 65.78947368421052, 63.829787234042556, 63.29113924050633, 63.29113924050633, 63.02521008403362, 63.02521008403362, 59.05511811023622, 59.05511811023622, 58.59375, 59.523809523809526, 60.60606060606061, 59.28853754940712, 60.120240480961925, 61.224489795918366, 61.98347107438016, 64.1025641025641, 63.559322033898304, 63.29113924050633, 69.12442396313364, 66.96428571428571, 69.44444444444444, 68.3371298405467, 62.5, 63.424947145877375, 62.24066390041494, 61.47540983606557, 62.5, 61.72839506172839, 150.0, 117.1875, 116.27906976744185, 111.94029850746269, 121.4574898785425, 100.0, 123.45679012345678, 128.2051282051282, 150.0, 150.0, 100.0, 99.33774834437087, 100.0, 100.67114093959732, 104.8951048951049, 148.5148514851485, 148.5148514851485, 150.0, 111.94029850746269, 150.0, 150.0, 148.5148514851485, 150.0, 148.5148514851485, 150.0, 148.5148514851485, 150.0, 148.5148514851485, 148.5148514851485, 150.0, 150.0, 134.52914798206277, 116.73151750972762, 138.88888888888889, 107.9136690647482, 115.38461538461539, 105.63380281690141, 100.67114093959732, 115.38461538461539, 120.0, 123.96694214876032, 105.63380281690141, 113.63636363636364, 100.0, 100.67114093959732, 106.00706713780919, 119.04761904761905, 100.67114093959732, 103.80622837370242, 104.8951048951049, 107.9136690647482, 111.94029850746269, 117.1875, 114.50381679389314, 99.00990099009901, 108.69565217391305, 120.0, 112.78195488721805, 123.45679012345678, 136.36363636363637, 117.1875, 138.88888888888889, 101.01010101010101, 105.26315789473684, 148.5148514851485, 150.0, 124.48132780082987, 148.5148514851485, 143.54066985645932, 148.5148514851485, 126.58227848101266, 126.05042016806723, 100.67114093959732, 100.0, 100.67114093959732, 125.0, 109.89010989010988, 100.67114093959732, 123.96694214876032, 110.29411764705883, 122.95081967213115, 113.20754716981132, 150.0, 148.5148514851485, 148.5148514851485, 116.27906976744185, 123.96694214876032, 100.0, 100.0, 115.38461538461539, 124.48132780082987, 118.11023622047244], 0], [[68.80733944954129, 65.50218340611353, 63.02521008403362, 62.5, 62.76150627615063, 64.1025641025641, 64.93506493506493, 66.07929515418502, 67.56756756756756, 66.07929515418502, 66.07929515418502, 65.50218340611353, 67.26457399103138, 71.09004739336493, 68.3371298405467, 65.78947368421052, 65.50218340611353, 65.78947368421052, 66.96428571428571, 66.96428571428571, 67.87330316742081, 68.80733944954129, 69.76744186046511, 69.12442396313364, 69.44444444444444, 69.44444444444444, 69.44444444444444, 70.09345794392523, 70.4225352112676, 72.81553398058253, 78.53403141361257, 72.46376811594203, 71.42857142857143, 71.77033492822966, 69.44444444444444, 68.18181818181819, 67.26457399103138, 67.26457399103138, 67.26457399103138, 66.07929515418502, 66.07929515418502, 67.56756756756756, 67.56756756756756, 67.87330316742081, 67.26457399103138, 70.09345794392523, 74.25742574257426, 70.09345794392523, 73.89162561576354, 73.89162561576354, 71.09004739336493, 69.76744186046511, 69.76744186046511, 68.18181818181819, 67.87330316742081, 67.56756756756756, 66.66666666666667, 66.66666666666667, 65.78947368421052, 66.66666666666667, 67.56756756756756, 67.87330316742081, 67.56756756756756, 67.56756756756756], 0], [[150.0, 138.88888888888889, 148.5148514851485, 150.0, 150.0, 150.0, 138.88888888888889, 137.61467889908258, 138.88888888888889, 131.00436681222706, 140.8450704225352, 138.88888888888889, 138.88888888888889, 140.18691588785046, 148.5148514851485, 150.0, 150.0, 140.18691588785046, 148.5148514851485, 150.0, 144.23076923076923, 140.18691588785046, 150.0, 147.05882352941177, 148.5148514851485, 150.0, 151.5151515151515, 150.0, 150.0, 150.0, 148.5148514851485, 105.63380281690141, 104.8951048951049, 115.38461538461539, 123.96694214876032, 150.0, 116.27906976744185, 150.0, 148.5148514851485, 150.0, 150.0, 150.0, 150.0, 147.7832512315271, 148.5148514851485, 150.0, 150.0], 1], [[150.0, 148.5148514851485, 148.5148514851485, 150.0, 150.0, 148.5148514851485, 150.0, 150.0, 150.0, 150.0, 150.0, 150.0, 150.0, 150.0, 148.5148514851485, 150.0, 149.2537313432836, 148.5148514851485, 150.0, 150.0, 150.0, 150.0, 150.0, 150.0, 150.0, 150.0, 150.0, 150.0, 150.0, 148.5148514851485, 100.67114093959732, 148.5148514851485, 148.5148514851485, 101.35135135135135, 101.35135135135135, 148.5148514851485, 148.5148514851485, 148.5148514851485, 148.5148514851485, 101.35135135135135, 148.5148514851485, 148.5148514851485, 148.5148514851485, 116.27906976744185, 150.0, 148.5148514851485, 100.67114093959732, 148.5148514851485, 141.50943396226415, 103.44827586206897, 100.67114093959732, 150.0, 100.0, 100.67114093959732, 150.0, 142.85714285714286, 100.67114093959732, 141.50943396226415, 150.0, 150.0, 148.5148514851485, 150.0, 148.5148514851485, 148.5148514851485, 100.67114093959732, 100.67114093959732, 100.0, 100.67114093959732, 148.5148514851485, 148.5148514851485, 101.35135135135135, 101.35135135135135, 100.67114093959732, 100.0, 147.05882352941177, 100.67114093959732, 148.5148514851485, 150.0, 150.0, 150.0, 100.67114093959732, 139.53488372093022, 101.35135135135135], 1], [[141.50943396226415, 105.63380281690141, 150.0, 140.18691588785046, 150.0, 113.63636363636364, 112.78195488721805, 105.26315789473684, 104.16666666666667, 118.11023622047244, 105.63380281690141, 114.94252873563218, 110.29411764705883, 115.83011583011583, 150.0, 150.0, 148.5148514851485, 150.0, 148.5148514851485, 129.31034482758622, 144.23076923076923, 145.63106796116506, 144.23076923076923, 133.92857142857142, 141.50943396226415, 147.05882352941177, 105.26315789473684, 147.05882352941177, 141.50943396226415, 145.63106796116506, 107.52688172043011, 108.69565217391305, 147.05882352941177, 150.0, 148.5148514851485, 150.0, 147.05882352941177, 141.50943396226415, 150.0, 150.0, 150.0, 148.5148514851485, 148.5148514851485, 100.67114093959732, 150.0, 101.35135135135135, 150.0, 148.5148514851485, 148.5148514851485, 145.63106796116506, 102.04081632653062, 148.5148514851485, 102.38907849829351, 150.0, 148.5148514851485, 142.18009478672985, 147.7832512315271, 148.5148514851485, 150.0, 148.5148514851485, 148.5148514851485, 150.0, 150.0, 150.0, 144.23076923076923, 140.18691588785046, 135.13513513513513, 133.92857142857142, 123.45679012345678, 145.63106796116506, 148.5148514851485, 100.67114093959732, 148.5148514851485, 119.5219123505976, 150.0, 148.5148514851485, 148.5148514851485, 148.5148514851485, 140.18691588785046], 1], [[69.76744186046511, 68.4931506849315, 69.12442396313364, 70.75471698113208, 71.09004739336493, 72.11538461538461, 70.09345794392523, 70.4225352112676, 73.89162561576354, 71.42857142857143, 69.44444444444444, 70.75471698113208, 67.26457399103138, 68.4931506849315, 69.12442396313364, 71.09004739336493, 71.42857142857143, 69.44444444444444, 69.76744186046511, 70.09345794392523, 70.09345794392523, 69.76744186046511, 67.87330316742081, 66.66666666666667, 66.66666666666667, 65.21739130434783, 66.3716814159292, 66.07929515418502, 66.66666666666667, 66.3716814159292, 66.07929515418502, 63.829787234042556, 67.56756756756756, 72.11538461538461, 71.42857142857143, 71.42857142857143, 72.81553398058253, 72.81553398058253, 69.44444444444444, 70.75471698113208, 66.96428571428571, 66.96428571428571, 64.37768240343348, 64.93506493506493, 64.93506493506493, 64.65517241379311, 63.559322033898304, 63.29113924050633, 63.29113924050633, 63.829787234042556, 64.65517241379311, 63.559322033898304, 63.559322033898304, 63.02521008403362, 63.829787234042556, 62.76150627615063, 62.5, 62.24066390041494, 63.559322033898304, 64.37768240343348], 1], [[66.96428571428571, 59.7609561752988, 61.72839506172839, 61.47540983606557, 61.72839506172839, 62.24066390041494, 63.02521008403362, 63.29113924050633, 64.65517241379311, 66.07929515418502, 65.21739130434783, 66.66666666666667, 66.07929515418502, 67.87330316742081, 64.37768240343348, 65.78947368421052, 64.65517241379311, 63.29113924050633, 62.76150627615063, 63.02521008403362, 63.29113924050633, 64.1025641025641, 64.1025641025641, 62.76150627615063, 64.65517241379311, 66.3716814159292, 64.65517241379311, 60.97560975609756, 59.28853754940712, 58.59375, 58.59375, 58.13953488372093, 57.915057915057915, 59.28853754940712, 60.72874493927125, 58.13953488372093, 58.13953488372093, 57.69230769230769, 57.69230769230769, 56.49717514124294, 55.14705882352941, 56.17977528089887, 53.763440860215056, 53.380782918149464, 58.59375, 59.28853754940712, 59.05511811023622, 57.142857142857146, 66.3716814159292, 64.1025641025641, 60.24096385542169, 58.13953488372093, 53.380782918149464, 53.763440860215056, 53.57142857142857, 53.9568345323741, 54.74452554744526, 54.54545454545455, 55.35055350553505], 0], [[151.5151515151515, 151.5151515151515, 151.5151515151515, 151.5151515151515, 151.5151515151515, 151.5151515151515, 151.5151515151515, 151.5151515151515, 151.5151515151515, 150.0, 150.0, 151.5151515151515, 151.5151515151515, 151.5151515151515, 151.5151515151515, 150.0, 151.5151515151515, 151.5151515151515, 150.0, 140.8450704225352, 133.92857142857142, 136.36363636363637, 131.57894736842104, 129.87012987012986, 147.05882352941177, 150.0, 150.0, 148.5148514851485, 148.5148514851485, 150.0, 150.0, 148.5148514851485, 148.5148514851485, 148.5148514851485, 148.5148514851485, 125.0, 126.05042016806723, 150.0, 151.5151515151515, 100.67114093959732, 101.35135135135135, 150.0, 150.0, 148.5148514851485, 150.0, 150.0, 148.5148514851485, 148.5148514851485, 105.63380281690141, 100.0, 114.50381679389314, 126.58227848101266, 148.5148514851485, 145.63106796116506, 147.05882352941177, 148.5148514851485, 147.05882352941177, 135.13513513513513, 117.1875, 112.35955056179775, 111.11111111111111, 116.27906976744185, 116.27906976744185, 113.63636363636364, 138.88888888888889, 110.29411764705883, 147.05882352941177, 148.5148514851485, 148.5148514851485, 132.7433628318584], 1], [[151.5151515151515, 150.0, 147.7832512315271, 147.05882352941177, 147.05882352941177, 100.0, 101.35135135135135, 148.5148514851485, 147.05882352941177, 147.7832512315271, 148.5148514851485, 148.5148514851485, 148.5148514851485, 145.63106796116506, 150.0, 150.0, 150.0, 148.5148514851485, 107.9136690647482, 148.5148514851485, 148.5148514851485, 106.38297872340425, 132.7433628318584, 138.88888888888889, 100.67114093959732, 100.67114093959732, 110.29411764705883, 104.8951048951049, 150.0, 150.0, 147.05882352941177, 102.73972602739725, 103.44827586206897, 138.88888888888889, 148.5148514851485, 142.18009478672985, 83.33333333333333, 100.67114093959732, 105.63380281690141, 100.0, 123.96694214876032, 150.0, 100.67114093959732, 100.67114093959732, 150.0, 150.0, 100.0, 148.5148514851485, 100.67114093959732, 100.33444816053512, 100.0, 148.5148514851485, 100.0, 100.67114093959732, 113.63636363636364, 101.35135135135135, 148.5148514851485, 148.5148514851485, 100.67114093959732, 148.5148514851485, 120.96774193548387, 148.5148514851485, 148.5148514851485, 148.5148514851485, 148.5148514851485, 150.0, 150.0, 150.0, 150.0, 150.0, 150.0, 150.0, 150.0], 1], [[150.0, 150.0, 150.0, 148.5148514851485, 148.5148514851485, 148.5148514851485, 148.5148514851485, 148.5148514851485, 147.05882352941177, 148.5148514851485, 148.5148514851485, 148.5148514851485, 100.0, 104.8951048951049, 150.0, 138.88888888888889, 105.63380281690141, 148.5148514851485, 105.63380281690141, 101.35135135135135, 138.24884792626727, 105.63380281690141, 104.8951048951049, 102.73972602739725, 100.67114093959732, 104.8951048951049, 132.15859030837004, 148.5148514851485, 106.38297872340425, 105.63380281690141, 148.5148514851485, 141.50943396226415, 148.5148514851485, 122.95081967213115, 140.18691588785046, 148.5148514851485, 100.67114093959732, 150.0, 150.0, 100.67114093959732, 100.0, 99.66777408637874, 105.63380281690141, 148.5148514851485, 148.5148514851485, 148.5148514851485, 150.0, 150.0, 150.0, 150.0, 148.5148514851485, 100.0, 148.5148514851485, 100.0, 150.0, 100.67114093959732, 99.33774834437087, 100.0, 100.67114093959732, 100.0, 100.0, 141.50943396226415, 148.5148514851485, 140.18691588785046, 150.0, 150.0, 150.0, 150.0, 150.0, 150.0, 150.0, 151.5151515151515, 150.0, 148.5148514851485, 150.0, 150.0, 148.5148514851485, 147.05882352941177, 148.5148514851485, 148.5148514851485, 100.0, 148.5148514851485, 116.27906976744185, 100.67114093959732, 145.63106796116506, 103.44827586206897, 148.5148514851485, 148.5148514851485, 150.0, 150.0, 147.05882352941177, 145.63106796116506, 145.63106796116506, 150.0, 100.67114093959732, 100.67114093959732, 100.67114093959732], 1], [[85.22727272727273, 84.26966292134831, 92.3076923076923, 103.44827586206897, 99.33774834437087, 80.64516129032258, 94.33962264150944, 79.57559681697613, 77.31958762886597, 75.75757575757575, 75.0, 72.81553398058253, 72.46376811594203, 72.81553398058253, 72.81553398058253, 73.17073170731707, 75.0, 74.25742574257426, 75.37688442211055, 75.0, 75.37688442211055, 75.37688442211055, 72.46376811594203, 71.42857142857143, 75.0, 75.37688442211055, 75.0, 78.53403141361257, 69.44444444444444, 71.09004739336493, 69.76744186046511, 67.56756756756756, 68.96551724137932, 70.09345794392523, 70.4225352112676, 71.42857142857143, 70.75471698113208, 71.09004739336493, 70.4225352112676, 71.42857142857143, 72.81553398058253, 73.17073170731707, 70.4225352112676, 71.09004739336493, 70.09345794392523, 70.75471698113208, 67.56756756756756, 69.44444444444444, 66.3716814159292, 69.12442396313364, 67.26457399103138, 68.4931506849315, 66.66666666666667, 69.44444444444444, 66.66666666666667, 68.4931506849315, 67.87330316742081, 67.26457399103138, 69.44444444444444, 70.09345794392523, 70.4225352112676, 71.09004739336493, 71.77033492822966, 72.46376811594203, 73.17073170731707, 73.52941176470588, 76.14213197969544, 72.11538461538461, 76.92307692307692, 77.72020725388602, 79.7872340425532, 95.54140127388536, 85.71428571428571, 74.6268656716418, 73.89162561576354, 76.14213197969544, 74.25742574257426, 74.25742574257426, 73.52941176470588, 70.4225352112676, 70.75471698113208, 70.75471698113208, 71.09004739336493, 73.17073170731707, 73.89162561576354, 73.17073170731707, 74.6268656716418, 73.17073170731707, 73.52941176470588, 70.4225352112676, 71.42857142857143], 1], [[120.96774193548387, 147.05882352941177, 147.05882352941177, 148.5148514851485, 100.67114093959732, 110.29411764705883, 99.33774834437087, 144.23076923076923, 101.35135135135135, 103.44827586206897, 103.44827586206897, 142.85714285714286, 137.61467889908258, 123.96694214876032, 128.2051282051282, 148.5148514851485, 142.85714285714286, 144.92753623188406, 139.53488372093022, 105.26315789473684, 102.38907849829351, 104.16666666666667, 141.50943396226415, 142.85714285714286, 99.33774834437087, 77.72020725388602, 99.33774834437087, 101.35135135135135, 150.0, 148.5148514851485, 106.76156583629893, 111.11111111111111, 118.57707509881423, 148.5148514851485, 100.67114093959732, 148.5148514851485, 130.43478260869566, 145.63106796116506, 122.95081967213115, 148.5148514851485, 150.0, 100.0, 100.0, 117.1875, 101.35135135135135, 115.38461538461539, 127.65957446808511, 113.63636363636364, 101.35135135135135, 102.04081632653062, 111.94029850746269, 101.35135135135135, 130.43478260869566, 112.78195488721805], 1], [[78.53403141361257, 82.87292817679558, 83.33333333333333, 81.52173913043478, 79.7872340425532, 80.64516129032258, 80.0, 78.94736842105263, 76.92307692307692, 77.31958762886597, 76.14213197969544, 74.6268656716418, 71.42857142857143, 74.25742574257426, 76.92307692307692, 74.25742574257426, 76.33587786259542, 78.125, 81.52173913043478, 81.9672131147541, 81.08108108108108, 81.9672131147541, 82.87292817679558, 81.9672131147541, 81.9672131147541, 79.7872340425532, 76.53061224489795, 78.53403141361257, 77.31958762886597, 76.14213197969544, 78.125, 77.72020725388602, 78.53403141361257, 77.31958762886597, 79.36507936507937, 79.7872340425532, 78.53403141361257, 80.21390374331551, 82.87292817679558, 74.6268656716418, 76.53061224489795, 77.72020725388602, 77.31958762886597, 76.92307692307692, 78.53403141361257, 77.72020725388602, 77.72020725388602, 77.72020725388602, 75.75757575757575, 76.53061224489795, 76.53061224489795, 76.53061224489795], 1], [[71.42857142857143, 66.815144766147, 64.37768240343348, 62.5, 62.24066390041494, 62.76150627615063, 62.37006237006237, 63.02521008403362, 62.76150627615063, 61.47540983606557, 61.855670103092784, 60.24096385542169, 61.72839506172839, 63.02521008403362, 64.1025641025641, 64.93506493506493, 65.50218340611353, 66.07929515418502, 66.96428571428571, 68.4931506849315, 72.46376811594203, 67.56756756756756, 64.1025641025641, 65.50218340611353, 63.829787234042556, 63.02521008403362, 63.02521008403362, 60.72874493927125, 61.224489795918366, 61.47540983606557, 62.5, 63.29113924050633, 64.1025641025641, 63.829787234042556, 63.829787234042556, 63.559322033898304, 62.76150627615063, 61.47540983606557, 66.3716814159292, 67.26457399103138, 67.26457399103138, 63.559322033898304, 64.1025641025641, 63.29113924050633, 63.829787234042556, 66.96428571428571, 63.02521008403362, 62.63048016701461, 63.559322033898304, 62.24066390041494, 58.36575875486381, 57.69230769230769, 57.361376673040155, 57.25190839694657, 57.47126436781609, 57.69230769230769, 59.05511811023622, 56.81818181818182, 56.60377358490566, 57.25190839694657, 57.915057915057915, 58.36575875486381, 59.05511811023622, 58.8235294117647, 61.224489795918366, 60.24096385542169, 60.0, 58.36575875486381, 58.8235294117647, 56.390977443609025, 55.14705882352941, 55.55555555555556, 58.36575875486381, 63.559322033898304, 61.98347107438016, 59.523809523809526, 59.7609561752988], 1], [[84.26966292134831, 81.08108108108108, 77.72020725388602, 76.92307692307692, 79.7872340425532, 80.64516129032258, 80.64516129032258, 81.9672131147541, 80.64516129032258, 78.94736842105263, 79.36507936507937, 79.7872340425532, 80.21390374331551, 81.08108108108108, 81.08108108108108, 81.52173913043478, 81.9672131147541, 100.0, 86.20689655172414, 76.92307692307692, 76.14213197969544, 73.89162561576354, 71.77033492822966, 73.17073170731707, 75.0, 78.53403141361257, 78.125, 75.75757575757575, 73.52941176470588, 75.0, 76.92307692307692, 79.7872340425532, 78.53403141361257, 79.7872340425532, 78.53403141361257, 80.21390374331551, 77.31958762886597, 76.53061224489795, 76.53061224489795, 76.53061224489795, 75.75757575757575, 74.25742574257426, 72.81553398058253, 73.52941176470588, 73.52941176470588, 74.25742574257426, 75.0, 75.37688442211055, 74.25742574257426, 70.75471698113208, 69.12442396313364, 68.4931506849315, 72.81553398058253, 74.6268656716418, 74.6268656716418, 72.46376811594203, 70.75471698113208, 71.42857142857143, 70.75471698113208, 71.09004739336493, 70.75471698113208, 66.96428571428571, 66.3716814159292, 66.07929515418502, 66.96428571428571, 69.76744186046511, 71.77033492822966, 73.52941176470588, 73.52941176470588, 73.52941176470588, 73.17073170731707, 70.4225352112676, 70.4225352112676, 72.81553398058253, 73.52941176470588, 70.09345794392523, 69.76744186046511, 66.96428571428571, 68.18181818181819, 69.12442396313364, 75.75757575757575, 80.86253369272237, 66.96428571428571, 68.4931506849315, 69.76744186046511], 1], [[93.16770186335404, 94.9367088607595, 93.16770186335404, 89.28571428571429, 89.28571428571429, 88.75739644970415, 95.54140127388536, 96.7741935483871, 94.33962264150944, 92.02453987730061, 91.46341463414635, 91.46341463414635, 93.16770186335404, 94.9367088607595, 91.46341463414635, 78.125, 77.72020725388602, 75.75757575757575, 76.14213197969544, 83.33333333333333, 88.23529411764706, 80.21390374331551, 78.94736842105263, 81.52173913043478, 76.92307692307692, 76.92307692307692, 76.53061224489795, 75.37688442211055, 76.53061224489795, 75.0, 79.7872340425532, 79.36507936507937, 77.12082262210797, 76.92307692307692, 81.9672131147541, 82.87292817679558, 81.9672131147541, 81.52173913043478, 82.41758241758242, 80.64516129032258, 80.64516129032258, 80.21390374331551, 81.08108108108108, 88.75739644970415, 76.92307692307692, 77.72020725388602, 77.72020725388602, 78.3289817232376, 78.94736842105263, 88.23529411764706, 78.53403141361257, 77.31958762886597, 77.72020725388602, 80.64516129032258, 79.36507936507937, 78.125, 80.0, 86.70520231213872, 88.75739644970415, 87.20930232558139, 82.87292817679558, 78.53403141361257, 75.37688442211055, 77.72020725388602, 72.99270072992701, 73.52941176470588, 73.17073170731707, 83.79888268156425, 82.41758241758242, 85.22727272727273, 81.9672131147541, 78.125, 101.35135135135135, 126.05042016806723, 105.63380281690141, 110.29411764705883, 106.38297872340425, 115.38461538461539, 107.14285714285714], 1], [[151.5151515151515, 150.0, 150.0, 150.0, 151.5151515151515, 151.5151515151515, 150.0, 150.0, 150.0, 150.0, 151.5151515151515, 150.0, 100.33444816053512, 100.67114093959732, 102.04081632653062, 100.0, 150.0, 150.0, 150.0, 150.0, 150.0, 150.0, 103.44827586206897, 107.14285714285714, 100.67114093959732, 100.67114093959732, 100.0, 103.80622837370242, 100.0, 100.0, 100.0, 100.67114093959732, 101.35135135135135, 103.44827586206897, 96.15384615384616, 99.33774834437087, 100.0, 148.5148514851485, 148.5148514851485, 148.5148514851485, 140.18691588785046, 104.16666666666667, 100.67114093959732, 142.85714285714286, 147.05882352941177, 148.5148514851485, 147.05882352941177, 148.5148514851485, 150.0, 150.0, 150.0, 150.0, 148.5148514851485, 150.0, 150.0, 151.5151515151515, 100.67114093959732, 100.0, 125.0, 104.16666666666667, 100.67114093959732, 140.18691588785046, 150.0, 150.0, 150.0, 150.0, 150.0, 150.0, 148.5148514851485, 150.0, 148.5148514851485, 150.0, 150.0, 150.0, 150.0, 148.5148514851485, 100.0], 1], [[78.125, 75.75757575757575, 75.37688442211055, 73.89162561576354, 72.81553398058253, 71.77033492822966, 70.09345794392523, 70.4225352112676, 67.87330316742081, 68.80733944954129, 68.4931506849315, 68.18181818181819, 68.18181818181819, 68.4931506849315, 67.41573033707866, 65.21739130434783, 68.18181818181819, 68.18181818181819, 68.18181818181819, 66.96428571428571, 64.93506493506493, 65.50218340611353, 66.66666666666667, 66.66666666666667, 66.96428571428571, 66.96428571428571, 67.56756756756756, 65.50218340611353, 66.66666666666667, 66.07929515418502, 65.21739130434783, 64.93506493506493, 70.75471698113208, 67.41573033707866, 72.11538461538461, 69.76744186046511, 69.76744186046511, 65.50218340611353, 63.559322033898304, 62.76150627615063, 61.47540983606557, 63.02521008403362, 63.559322033898304, 63.559322033898304, 63.424947145877375, 64.1025641025641, 64.1025641025641, 65.21739130434783, 65.21739130434783, 66.3716814159292, 65.50218340611353, 65.50218340611353, 65.21739130434783, 67.56756756756756, 65.359477124183, 67.87330316742081, 65.78947368421052, 67.56756756756756, 65.21739130434783, 66.3716814159292, 62.5, 63.559322033898304, 60.97560975609756, 61.72839506172839, 61.47540983606557, 63.02521008403362, 66.96428571428571], 0], [[70.75471698113208, 67.26457399103138, 66.51884700665188, 66.66666666666667, 66.66666666666667, 67.26457399103138, 67.26457399103138, 67.56756756756756, 67.87330316742081, 68.3371298405467, 68.4931506849315, 69.44444444444444, 68.18181818181819, 69.12442396313364, 68.80733944954129, 69.12442396313364, 68.4931506849315, 68.18181818181819, 69.12442396313364, 67.72009029345372, 68.3371298405467, 69.12442396313364, 69.76744186046511, 69.76744186046511, 65.78947368421052, 66.07929515418502, 65.21739130434783, 64.93506493506493, 65.78947368421052, 64.93506493506493, 64.93506493506493, 67.87330316742081, 65.78947368421052, 66.3716814159292, 67.56756756756756, 67.56756756756756, 67.87330316742081, 68.18181818181819, 68.4931506849315, 68.4931506849315, 71.77033492822966, 66.3716814159292, 67.26457399103138, 66.66666666666667, 66.96428571428571, 67.26457399103138, 66.96428571428571, 65.21739130434783, 65.21739130434783, 65.50218340611353, 68.18181818181819, 66.3716814159292, 66.3716814159292, 70.75471698113208, 70.4225352112676, 70.92198581560284, 73.17073170731707, 73.17073170731707, 73.52941176470588, 69.44444444444444, 68.80733944954129, 67.11409395973155, 65.50218340611353, 65.78947368421052, 66.66666666666667, 66.3716814159292, 66.3716814159292, 66.66666666666667, 66.66666666666667, 66.96428571428571, 67.56756756756756, 65.21739130434783, 66.07929515418502, 64.65517241379311], 1], [[85.71428571428571, 84.26966292134831, 84.7457627118644, 82.41758241758242, 80.21390374331551, 79.7872340425532, 79.36507936507937, 77.72020725388602, 77.31958762886597, 76.92307692307692, 76.53061224489795, 76.92307692307692, 76.92307692307692, 76.92307692307692, 77.72020725388602, 80.21390374331551, 82.41758241758242, 84.26966292134831, 84.7457627118644, 85.71428571428571, 83.79888268156425, 82.41758241758242, 80.21390374331551, 78.53403141361257, 79.36507936507937, 79.36507936507937, 77.72020725388602, 76.53061224489795, 72.81553398058253, 70.2576112412178, 76.14213197969544, 74.25742574257426, 73.89162561576354, 76.92307692307692, 75.0, 74.25742574257426, 79.36507936507937, 79.36507936507937, 76.92307692307692, 76.53061224489795, 76.92307692307692, 76.14213197969544, 76.53061224489795, 75.0, 74.6268656716418, 75.37688442211055, 75.37688442211055, 74.6268656716418, 74.25742574257426, 73.89162561576354, 74.25742574257426, 74.6268656716418, 73.89162561576354, 73.52941176470588, 72.11538461538461, 69.12442396313364, 70.09345794392523, 70.75471698113208, 71.42857142857143, 70.09345794392523, 70.4225352112676, 70.75471698113208, 68.18181818181819, 68.4931506849315, 66.96428571428571, 65.50218340611353, 66.66666666666667, 64.65517241379311, 63.29113924050633, 64.37768240343348, 70.4225352112676, 70.75471698113208, 71.77033492822966, 71.77033492822966, 71.42857142857143, 68.18181818181819, 66.66666666666667, 68.18181818181819, 69.12442396313364, 69.12442396313364], 1], [[74.25742574257426, 69.44444444444444, 65.21739130434783, 64.1025641025641, 62.5, 61.98347107438016, 61.72839506172839, 61.72839506172839, 62.76150627615063, 61.224489795918366, 60.851926977687626, 60.72874493927125, 61.47540983606557, 65.21739130434783, 64.37768240343348, 67.56756756756756, 65.50218340611353, 64.1025641025641, 62.76150627615063, 62.76150627615063, 63.29113924050633, 63.29113924050633, 63.559322033898304, 62.24066390041494, 63.02521008403362, 64.1025641025641, 63.02521008403362, 61.224489795918366, 62.76150627615063, 63.02521008403362, 62.24066390041494, 61.72839506172839, 62.5, 66.3716814159292, 67.56756756756756, 67.56756756756756, 73.17073170731707, 71.77033492822966, 67.26457399103138, 65.21739130434783, 65.78947368421052, 62.63048016701461, 61.224489795918366, 60.0, 59.28853754940712, 59.7609561752988, 58.36575875486381, 58.8235294117647, 59.28853754940712, 58.8235294117647, 59.523809523809526, 58.8235294117647, 58.13953488372093, 59.05511811023622, 58.36575875486381, 61.98347107438016, 62.5, 63.559322033898304, 59.28853754940712, 60.24096385542169, 58.36575875486381, 56.28517823639775, 55.762081784386616, 54.4464609800363, 55.762081784386616, 55.762081784386616, 55.55555555555556, 55.97014925373134, 56.17977528089887, 57.034220532319395, 57.034220532319395, 56.81818181818182, 55.97014925373134, 56.17977528089887, 59.880239520958085], 1], [[75.0, 70.92198581560284, 70.09345794392523, 68.80733944954129, 69.12442396313364, 68.80733944954129, 67.26457399103138, 65.50218340611353, 65.21739130434783, 65.21739130434783, 66.66666666666667, 64.1025641025641, 64.65517241379311, 68.80733944954129, 69.12442396313364, 65.21739130434783, 63.29113924050633, 64.37768240343348, 61.98347107438016, 61.98347107438016, 62.5, 64.1025641025641, 61.224489795918366, 62.5, 64.93506493506493, 66.07929515418502, 66.3716814159292, 62.5, 60.24096385542169, 59.7609561752988, 59.7609561752988, 65.78947368421052, 62.24066390041494, 61.224489795918366, 63.02521008403362, 64.51612903225806, 60.97560975609756, 62.76150627615063, 61.72839506172839, 64.37768240343348, 64.65517241379311, 66.96428571428571, 66.07929515418502, 66.96428571428571, 78.94736842105263, 68.4931506849315, 65.50218340611353, 65.78947368421052, 64.65517241379311, 65.50218340611353, 66.3716814159292, 69.44444444444444, 66.66666666666667, 67.56756756756756, 64.65517241379311, 65.78947368421052, 70.75471698113208, 66.3716814159292, 70.75471698113208], 1], [[79.36507936507937, 71.42857142857143, 66.66666666666667, 63.829787234042556, 63.559322033898304, 62.76150627615063, 61.98347107438016, 61.72839506172839, 61.224489795918366, 61.224489795918366, 60.97560975609756, 61.224489795918366, 63.829787234042556, 62.24066390041494, 61.47540983606557, 61.224489795918366, 60.97560975609756, 60.483870967741936, 58.8235294117647, 58.13953488372093, 58.36575875486381, 58.59375, 59.05511811023622, 60.483870967741936, 60.0, 59.28853754940712, 59.523809523809526, 60.97560975609756, 59.7609561752988, 60.72874493927125, 60.0, 58.36575875486381, 59.05511811023622, 58.59375, 58.93909626719057, 60.483870967741936, 63.02521008403362, 64.65517241379311, 62.76150627615063, 63.29113924050633, 63.29113924050633, 62.76150627615063, 63.02521008403362, 60.97560975609756, 60.483870967741936, 60.483870967741936, 60.72874493927125, 60.97560975609756, 60.97560975609756, 61.224489795918366, 61.224489795918366, 59.05511811023622, 59.05511811023622, 59.523809523809526, 59.05511811023622, 59.523809523809526, 60.0, 59.7609561752988, 60.60606060606061, 60.97560975609756, 60.0, 60.483870967741936, 60.97560975609756, 60.72874493927125, 57.915057915057915, 58.36575875486381, 58.8235294117647, 58.36575875486381, 58.36575875486381, 58.36575875486381, 58.59375, 57.69230769230769], 1], [[80.64516129032258, 78.53403141361257, 77.72020725388602, 76.92307692307692, 75.37688442211055, 75.37688442211055, 75.0, 74.25742574257426, 74.25742574257426, 74.6268656716418, 71.77033492822966, 73.52941176470588, 71.77033492822966, 73.89162561576354, 71.42857142857143, 71.77033492822966, 71.42857142857143, 71.09004739336493, 69.12442396313364, 67.26457399103138, 67.56756756756756, 67.87330316742081, 67.72009029345372, 68.4931506849315, 67.87330316742081, 67.72009029345372, 68.4931506849315, 69.76744186046511, 71.42857142857143, 70.4225352112676, 72.46376811594203, 68.80733944954129, 67.87330316742081, 69.12442396313364, 67.56756756756756, 67.26457399103138, 66.96428571428571, 67.56756756756756, 67.87330316742081, 67.56756756756756, 67.26457399103138, 67.87330316742081, 65.50218340611353, 67.26457399103138, 67.26457399103138, 66.07929515418502, 67.56756756756756, 70.4225352112676, 69.76744186046511, 67.87330316742081, 66.96428571428571, 65.64551422319475, 65.21739130434783, 65.21739130434783, 64.37768240343348, 65.21739130434783, 63.96588486140725, 64.1025641025641, 65.78947368421052, 63.559322033898304, 64.37768240343348, 64.1025641025641, 64.37768240343348, 65.50218340611353, 69.12442396313364, 66.96428571428571, 71.42857142857143, 71.09004739336493, 72.46376811594203, 72.46376811594203, 73.52941176470588, 72.46376811594203, 67.26457399103138, 67.26457399103138, 66.66666666666667, 67.26457399103138], 1], [[69.76744186046511, 66.66666666666667, 65.21739130434783, 65.78947368421052, 64.37768240343348, 64.65517241379311, 65.21739130434783, 66.96428571428571, 65.50218340611353, 67.26457399103138, 65.50218340611353, 65.21739130434783, 66.96428571428571, 64.65517241379311, 64.93506493506493, 67.26457399103138, 64.93506493506493, 64.65517241379311, 64.93506493506493, 64.93506493506493, 65.50218340611353, 65.21739130434783, 66.96428571428571, 69.28406466512702, 63.559322033898304, 64.93506493506493, 65.78947368421052, 63.29113924050633, 61.98347107438016, 64.1025641025641, 62.24066390041494, 64.93506493506493, 64.93506493506493, 70.09345794392523, 69.60556844547564, 67.26457399103138, 67.41573033707866, 68.80733944954129, 69.76744186046511, 70.4225352112676, 69.76744186046511, 69.44444444444444, 68.80733944954129, 69.44444444444444, 68.80733944954129, 68.80733944954129, 68.80733944954129, 68.80733944954129, 66.3716814159292, 64.37768240343348, 64.93506493506493, 63.829787234042556, 65.50218340611353, 70.09345794392523, 65.21739130434783, 66.96428571428571, 65.50218340611353, 65.50218340611353, 68.18181818181819, 67.26457399103138, 66.66666666666667, 68.4931506849315, 66.66666666666667, 64.93506493506493, 65.78947368421052, 67.26457399103138], 1], [[71.77033492822966, 69.44444444444444, 66.07929515418502, 67.26457399103138, 68.4931506849315, 68.4931506849315, 68.4931506849315, 61.98347107438016, 63.559322033898304, 66.07929515418502, 63.69426751592356, 60.72874493927125, 59.28853754940712, 58.13953488372093, 56.81818181818182, 56.60377358490566, 58.13953488372093, 56.390977443609025, 57.25190839694657, 54.249547920434, 55.35055350553505, 57.25190839694657, 55.97014925373134, 54.151624548736464, 54.54545454545455, 54.4464609800363, 54.34782608695652, 53.380782918149464, 57.915057915057915, 63.29113924050633, 56.17977528089887, 55.55555555555556, 56.60377358490566, 60.97560975609756, 55.97014925373134, 53.9568345323741, 55.35055350553505, 54.74452554744526, 54.34782608695652, 55.762081784386616, 54.74452554744526, 55.14705882352941, 54.54545454545455, 54.74452554744526, 54.54545454545455, 53.003533568904594, 54.054054054054056, 53.003533568904594, 53.003533568904594, 53.57142857142857, 52.083333333333336, 51.90311418685121, 55.35055350553505, 57.69230769230769, 56.60377358490566, 53.57142857142857, 55.55555555555556, 57.47126436781609, 54.74452554744526, 54.94505494505494, 52.44755244755245, 50.847457627118644, 51.724137931034484, 51.90311418685121, 51.10732538330494, 51.724137931034484, 51.54639175257732, 51.54639175257732, 52.083333333333336], 1], [[80.21390374331551, 74.25742574257426, 74.25742574257426, 73.89162561576354, 73.17073170731707, 72.46376811594203, 72.46376811594203, 73.17073170731707, 73.52941176470588, 73.52941176470588, 73.17073170731707, 73.52941176470588, 69.12442396313364, 70.75471698113208, 70.09345794392523, 71.42857142857143, 69.12442396313364, 69.44444444444444, 70.09345794392523, 71.09004739336493, 71.42857142857143, 67.26457399103138, 67.56756756756756, 68.18181818181819, 67.87330316742081, 67.56756756756756, 67.26457399103138, 67.56756756756756, 66.96428571428571, 64.93506493506493, 66.96428571428571, 67.56756756756756, 67.56756756756756, 64.65517241379311, 64.65517241379311, 64.1025641025641, 63.29113924050633, 62.76150627615063, 63.829787234042556, 65.50218340611353, 66.66666666666667, 66.3716814159292, 68.18181818181819, 78.53403141361257, 67.26457399103138, 66.96428571428571, 66.66666666666667, 67.56756756756756, 77.31958762886597, 65.78947368421052, 65.50218340611353, 65.78947368421052, 66.07929515418502, 66.66666666666667, 67.26457399103138, 67.26457399103138, 67.26457399103138, 66.66666666666667, 66.66666666666667, 67.26457399103138, 67.87330316742081, 69.76744186046511, 67.26457399103138, 69.44444444444444, 69.44444444444444, 67.56756756756756, 68.18181818181819, 70.09345794392523, 69.12442396313364, 68.18181818181819, 66.07929515418502, 66.3716814159292, 65.21739130434783, 66.07929515418502, 65.93406593406593], 0], [[78.94736842105263, 72.11538461538461, 68.18181818181819, 66.96428571428571, 66.3716814159292, 66.66666666666667, 66.07929515418502, 64.65517241379311, 64.1025641025641, 64.37768240343348, 64.37768240343348, 64.37768240343348, 63.559322033898304, 64.93506493506493, 65.21739130434783, 63.02521008403362, 63.29113924050633, 65.21739130434783, 67.56756756756756, 69.44444444444444, 68.4931506849315, 66.07929515418502, 66.07929515418502, 64.1025641025641, 62.24066390041494, 62.76150627615063, 61.72839506172839, 61.47540983606557, 61.47540983606557, 60.97560975609756, 61.224489795918366, 61.47540983606557, 60.72874493927125, 63.559322033898304, 63.29113924050633, 60.483870967741936, 61.98347107438016, 58.59375, 60.72874493927125, 60.0, 75.75757575757575, 58.59375, 64.37768240343348, 69.12442396313364, 69.44444444444444, 64.65517241379311, 63.02521008403362, 64.37768240343348, 63.1578947368421, 60.72874493927125, 61.72839506172839, 60.0, 58.02707930367505, 60.0, 59.7609561752988, 61.224489795918366, 58.8235294117647, 60.72874493927125, 60.97560975609756, 60.851926977687626, 61.98347107438016, 60.0, 60.24096385542169, 60.24096385542169, 61.47540983606557, 65.64551422319475, 69.76744186046511, 66.66666666666667, 64.65517241379311, 63.96588486140725, 63.69426751592356, 60.60606060606061, 59.28853754940712, 61.47540983606557, 63.29113924050633, 63.02521008403362, 62.76150627615063, 64.37768240343348, 66.07929515418502, 72.81553398058253, 68.96551724137932, 66.3716814159292, 65.359477124183, 68.80733944954129, 59.642147117296226], 1], [[147.05882352941177, 104.8951048951049, 100.67114093959732, 106.00706713780919, 105.63380281690141, 104.8951048951049, 100.67114093959732, 104.16666666666667, 100.67114093959732, 104.16666666666667, 104.16666666666667, 100.67114093959732, 103.44827586206897, 131.57894736842104, 143.54066985645932, 101.35135135135135, 100.67114093959732, 105.63380281690141, 105.63380281690141, 100.0, 104.8951048951049, 105.63380281690141, 105.63380281690141, 101.35135135135135, 105.63380281690141, 106.38297872340425, 105.63380281690141, 150.0, 147.05882352941177, 105.63380281690141, 100.67114093959732, 100.0, 104.16666666666667, 103.44827586206897, 101.35135135135135, 100.67114093959732, 100.0, 100.0, 104.16666666666667, 104.16666666666667, 103.44827586206897, 140.18691588785046, 101.35135135135135, 148.5148514851485, 147.05882352941177, 147.05882352941177, 100.0, 101.35135135135135, 117.1875, 139.53488372093022, 104.8951048951049, 104.8951048951049, 148.5148514851485, 148.5148514851485, 150.0, 147.05882352941177, 150.0, 148.5148514851485, 150.0, 148.5148514851485, 150.0, 138.88888888888889, 105.26315789473684, 138.88888888888889, 148.5148514851485, 148.5148514851485, 148.5148514851485, 147.05882352941177, 147.05882352941177, 132.7433628318584, 110.29411764705883, 107.9136690647482, 140.18691588785046, 147.05882352941177, 148.5148514851485, 148.5148514851485, 100.67114093959732, 100.67114093959732, 100.67114093959732, 115.38461538461539, 100.0, 100.0, 101.35135135135135, 148.5148514851485, 141.50943396226415, 142.85714285714286, 111.94029850746269, 144.23076923076923, 102.04081632653062, 142.85714285714286, 145.63106796116506, 150.0, 100.67114093959732, 147.05882352941177, 108.69565217391305, 150.0, 120.48192771084338, 150.0], 1], [[150.0, 150.0, 148.5148514851485, 148.5148514851485, 103.09278350515464, 120.0, 150.0, 150.0, 148.5148514851485, 148.5148514851485, 150.0, 150.0, 150.0, 150.0, 150.0, 150.0, 150.0, 150.0, 150.0, 147.05882352941177, 148.5148514851485, 150.0, 148.5148514851485, 150.0, 147.7832512315271, 144.23076923076923, 141.50943396226415, 150.0, 148.5148514851485, 150.0, 150.0, 102.04081632653062, 147.05882352941177, 100.0, 148.5148514851485, 148.5148514851485, 150.0, 111.94029850746269, 148.5148514851485, 150.0, 101.35135135135135, 150.0, 148.5148514851485, 148.5148514851485, 150.0, 150.0, 107.14285714285714, 148.5148514851485, 100.67114093959732, 148.5148514851485, 150.0, 150.0, 150.0, 150.0, 150.0, 150.0, 150.0, 150.0, 150.0, 150.0, 150.0, 148.5148514851485, 150.0, 150.0, 148.5148514851485, 148.5148514851485, 150.0, 148.5148514851485, 107.52688172043011, 145.63106796116506, 125.0, 150.0, 150.0, 150.0, 150.0, 138.88888888888889, 150.0, 148.5148514851485, 150.0, 150.0, 150.0, 150.0, 150.0, 148.5148514851485, 150.0, 150.0, 150.0], 1], [[150.0, 150.0, 150.0, 150.0, 115.38461538461539, 114.50381679389314, 100.67114093959732, 100.67114093959732, 115.38461538461539, 122.95081967213115, 101.35135135135135, 115.38461538461539, 100.67114093959732, 147.05882352941177, 147.05882352941177, 148.5148514851485, 148.5148514851485, 148.5148514851485, 148.5148514851485, 148.5148514851485, 148.5148514851485, 150.0, 148.5148514851485, 142.85714285714286, 100.67114093959732, 100.0, 100.67114093959732, 100.0, 100.0, 148.5148514851485, 100.67114093959732, 100.67114093959732, 148.5148514851485, 150.0, 100.67114093959732, 100.67114093959732, 100.0, 100.67114093959732, 100.67114093959732, 148.5148514851485, 147.05882352941177, 125.0, 148.5148514851485, 114.94252873563218, 100.67114093959732, 148.5148514851485, 148.5148514851485, 147.05882352941177, 116.27906976744185, 100.67114093959732, 148.5148514851485, 148.5148514851485, 115.38461538461539, 150.0, 150.0, 151.5151515151515, 150.0, 105.63380281690141, 106.38297872340425, 148.5148514851485, 150.0, 148.5148514851485, 150.0, 150.0, 150.0, 150.0, 133.92857142857142, 105.63380281690141, 148.5148514851485, 150.0, 150.0, 150.0, 148.5148514851485, 126.58227848101266, 150.0, 150.0, 138.88888888888889, 138.88888888888889, 138.88888888888889, 105.63380281690141, 137.61467889908258, 150.0, 104.16666666666667, 105.63380281690141, 124.48132780082987, 104.16666666666667, 106.38297872340425], 1], [[150.0, 150.0, 150.0, 148.5148514851485, 115.38461538461539, 117.1875, 147.05882352941177, 100.67114093959732, 100.67114093959732, 100.0, 100.67114093959732, 100.67114093959732, 116.27906976744185, 116.73151750972762, 100.67114093959732, 122.95081967213115, 100.0, 100.0, 100.0, 100.67114093959732, 150.0, 147.05882352941177, 148.5148514851485, 112.78195488721805, 116.27906976744185, 147.05882352941177, 117.1875, 150.0, 150.0, 148.5148514851485, 148.5148514851485, 150.0, 147.7832512315271, 84.26966292134831, 102.73972602739725, 108.30324909747293, 102.04081632653062, 148.5148514851485, 148.5148514851485, 100.67114093959732, 148.5148514851485, 110.29411764705883, 101.69491525423729, 147.7832512315271, 150.0, 150.0, 147.05882352941177, 150.0, 148.5148514851485, 100.67114093959732, 147.05882352941177, 100.67114093959732, 100.67114093959732, 148.5148514851485, 100.67114093959732, 100.67114093959732, 148.5148514851485, 150.0, 150.0, 150.0, 148.5148514851485, 150.0, 150.0, 148.5148514851485, 150.0, 148.5148514851485, 150.0, 148.5148514851485, 150.0, 150.0, 147.7832512315271, 148.5148514851485], 1], [[66.3716814159292, 63.29113924050633, 64.65517241379311, 65.21739130434783, 64.93506493506493, 65.50218340611353, 64.93506493506493, 65.50218340611353, 64.93506493506493, 65.21739130434783, 64.65517241379311, 64.1025641025641, 64.65517241379311, 65.21739130434783, 60.97560975609756, 58.59375, 59.7609561752988, 62.5, 67.26457399103138, 69.44444444444444, 69.12442396313364, 69.12442396313364, 68.18181818181819, 64.65517241379311, 61.98347107438016, 61.47540983606557, 61.855670103092784, 60.97560975609756, 66.07929515418502, 66.07929515418502, 63.559322033898304, 63.559322033898304, 64.37768240343348, 64.37768240343348, 62.5, 59.05511811023622, 59.28853754940712, 63.559322033898304, 150.0, 101.35135135135135, 147.05882352941177, 148.5148514851485, 150.0, 150.0, 150.0, 148.5148514851485, 141.50943396226415, 105.63380281690141, 104.16666666666667, 138.88888888888889, 100.33444816053512, 123.96694214876032, 118.11023622047244, 122.95081967213115, 116.27906976744185, 109.48905109489051, 140.18691588785046, 140.18691588785046, 130.43478260869566, 105.63380281690141, 150.0, 150.0, 150.0, 100.0, 148.5148514851485, 148.5148514851485, 141.50943396226415, 104.52961672473867, 148.5148514851485, 144.23076923076923, 148.5148514851485, 150.0, 150.0, 150.0, 148.5148514851485, 150.0, 148.5148514851485, 148.5148514851485, 100.0, 100.67114093959732, 148.5148514851485, 150.0], 1], [[70.4225352112676, 65.21739130434783, 67.56756756756756, 61.224489795918366, 59.05511811023622, 59.28853754940712, 60.24096385542169, 60.60606060606061, 60.60606060606061, 60.97560975609756, 61.224489795918366, 62.5, 63.02521008403362, 64.37768240343348, 62.24066390041494, 62.76150627615063, 63.559322033898304, 62.76150627615063, 77.31958762886597, 75.56675062972292, 72.81553398058253, 75.75757575757575, 71.09004739336493, 66.66666666666667, 63.29113924050633, 61.72839506172839, 60.97560975609756, 60.24096385542169, 60.72874493927125, 61.224489795918366, 59.28853754940712, 59.7609561752988, 59.523809523809526, 59.523809523809526, 59.523809523809526, 62.24066390041494, 77.31958762886597, 74.6268656716418, 71.77033492822966, 64.65517241379311, 62.24066390041494, 61.224489795918366, 63.29113924050633, 61.98347107438016, 63.559322033898304, 66.07929515418502, 64.1025641025641, 64.1025641025641, 62.76150627615063, 63.29113924050633, 63.29113924050633, 63.559322033898304, 63.559322033898304, 71.42857142857143, 75.0, 85.22727272727273, 63.02521008403362, 60.24096385542169, 60.72874493927125, 85.71428571428571, 66.07929515418502, 62.5, 58.13953488372093, 58.8235294117647, 57.915057915057915, 56.81818181818182, 56.81818181818182, 57.361376673040155, 56.60377358490566, 60.483870967741936, 67.56756756756756, 69.76744186046511], 1], [[60.97560975609756, 57.25190839694657, 56.81818181818182, 62.76150627615063, 57.034220532319395, 57.69230769230769, 57.034220532319395, 57.25190839694657, 57.034220532319395, 59.523809523809526, 61.72839506172839, 65.50218340611353, 67.87330316742081, 68.4931506849315, 68.80733944954129, 68.96551724137932, 69.44444444444444, 69.44444444444444, 70.09345794392523, 66.07929515418502, 63.559322033898304, 63.829787234042556, 64.37768240343348, 67.26457399103138, 67.87330316742081, 67.87330316742081, 61.72839506172839, 61.47540983606557, 61.72839506172839, 62.5, 66.66666666666667, 64.93506493506493, 65.78947368421052, 64.65517241379311, 65.21739130434783, 65.78947368421052, 66.96428571428571, 68.4931506849315, 69.44444444444444, 69.76744186046511, 70.09345794392523, 69.44444444444444, 67.87330316742081, 66.3716814159292, 66.96428571428571, 66.07929515418502, 66.07929515418502, 58.36575875486381, 60.97560975609756, 61.224489795918366, 66.07929515418502, 56.17977528089887, 54.54545454545455, 53.9568345323741, 53.763440860215056, 55.35055350553505, 58.13953488372093, 62.5, 58.13953488372093, 53.380782918149464, 51.19453924914676, 51.724137931034484, 51.63511187607573, 51.02040816326531, 51.19453924914676, 51.54639175257732, 52.63157894736842, 52.63157894736842, 53.003533568904594, 52.816901408450704, 53.097345132743364, 53.9568345323741, 53.475935828877006, 53.763440860215056, 54.54545454545455, 54.34782608695652, 53.763440860215056, 59.05511811023622, 60.72874493927125, 60.0, 59.28853754940712], 1], [[78.53403141361257, 77.72020725388602, 78.125, 75.0, 72.99270072992701, 71.77033492822966, 71.09004739336493, 72.11538461538461, 68.18181818181819, 67.26457399103138, 73.17073170731707, 70.09345794392523, 69.76744186046511, 69.44444444444444, 69.44444444444444, 69.12442396313364, 69.12442396313364, 69.76744186046511, 71.09004739336493, 72.81553398058253, 68.4931506849315, 76.53061224489795, 98.03921568627452, 73.71007371007371, 64.1025641025641, 63.02521008403362, 61.98347107438016, 60.97560975609756, 61.98347107438016, 63.559322033898304, 66.66666666666667, 64.37768240343348, 63.02521008403362, 62.5, 64.37768240343348, 67.56756756756756, 68.80733944954129, 50.16722408026756, 64.1025641025641, 62.24066390041494, 61.09979633401222, 62.76150627615063, 65.50218340611353, 64.93506493506493, 61.72839506172839, 62.76150627615063, 64.1025641025641, 60.24096385542169, 59.523809523809526, 58.13953488372093, 66.07929515418502, 64.65517241379311, 64.65517241379311, 64.79481641468682, 64.1025641025641, 63.829787234042556, 66.51884700665188, 69.76744186046511, 68.80733944954129, 61.47540983606557, 60.24096385542169, 52.44755244755245, 57.142857142857146, 51.54639175257732, 55.865921787709496, 53.9568345323741, 55.97014925373134, 51.90311418685121, 56.81818181818182, 50.847457627118644, 59.7609561752988, 58.13953488372093, 59.28853754940712, 65.78947368421052, 66.96428571428571, 71.42857142857143, 67.72009029345372, 63.829787234042556, 60.0, 61.47540983606557, 62.76150627615063, 62.5, 60.72874493927125, 60.24096385542169, 61.47540983606557, 61.47540983606557, 61.34969325153374, 60.24096385542169, 62.24066390041494, 62.76150627615063, 62.76150627615063, 63.1578947368421, 63.559322033898304, 61.224489795918366, 65.21739130434783, 69.44444444444444, 65.50218340611353, 67.56756756756756], 0], [[67.56756756756756, 57.034220532319395, 57.25190839694657, 55.35055350553505, 56.390977443609025, 60.0, 57.58157389635317, 57.361376673040155, 57.034220532319395, 55.762081784386616, 55.762081784386616, 55.55555555555556, 54.54545454545455, 54.151624548736464, 54.34782608695652, 55.762081784386616, 56.17977528089887, 54.94505494505494, 55.55555555555556, 54.94505494505494, 55.14705882352941, 55.04587155963303, 56.390977443609025, 55.762081784386616, 57.25190839694657, 56.81818181818182, 58.13953488372093, 60.72874493927125, 65.50218340611353, 67.41573033707866, 72.81553398058253, 69.44444444444444, 75.75757575757575, 71.77033492822966, 68.80733944954129, 63.829787234042556, 61.72839506172839, 60.97560975609756, 61.72839506172839, 62.24066390041494, 63.02521008403362, 63.829787234042556, 64.93506493506493, 59.7609561752988, 58.13953488372093, 58.13953488372093, 57.915057915057915, 57.915057915057915, 59.7609561752988, 58.59375, 58.59375, 58.36575875486381, 58.8235294117647, 59.28853754940712, 58.8235294117647, 58.8235294117647, 58.93909626719057, 59.28853754940712, 59.05511811023622, 59.05511811023622, 58.13953488372093, 59.28853754940712, 66.96428571428571], 1], [[78.53403141361257, 76.53061224489795, 76.53061224489795, 72.46376811594203, 71.77033492822966, 71.09004739336493, 70.75471698113208, 69.76744186046511, 69.76744186046511, 69.44444444444444, 69.44444444444444, 69.12442396313364, 68.80733944954129, 68.18181818181819, 71.77033492822966, 71.09004739336493, 72.46376811594203, 71.09004739336493, 69.12442396313364, 67.87330316742081, 67.87330316742081, 67.87330316742081, 68.18181818181819, 69.44444444444444, 69.44444444444444, 69.44444444444444, 66.96428571428571, 67.26457399103138, 67.56756756756756, 70.09345794392523, 73.52941176470588, 75.37688442211055, 71.59904534606206, 69.44444444444444, 64.93506493506493, 64.37768240343348, 64.1025641025641, 67.56756756756756, 69.12442396313364, 67.26457399103138, 66.66666666666667, 66.66666666666667, 66.3716814159292, 67.26457399103138, 67.26457399103138, 66.3716814159292, 66.07929515418502, 70.75471698113208, 71.09004739336493, 70.75471698113208, 67.87330316742081, 70.4225352112676, 70.4225352112676, 70.4225352112676, 67.87330316742081, 75.0], 1], [[76.92307692307692, 71.25890736342043, 71.09004739336493, 71.42857142857143, 69.76744186046511, 70.4225352112676, 73.52941176470588, 70.75471698113208, 67.87330316742081, 64.65517241379311, 63.829787234042556, 63.829787234042556, 62.24066390041494, 61.47540983606557, 60.483870967741936, 60.97560975609756, 61.224489795918366, 60.0, 61.72839506172839, 64.93506493506493, 64.1025641025641, 62.5, 65.50218340611353, 65.50218340611353, 64.65517241379311, 65.21739130434783, 65.50218340611353, 65.50218340611353, 65.50218340611353, 65.93406593406593, 66.07929515418502, 65.78947368421052, 65.78947368421052, 61.224489795918366, 62.24066390041494, 63.559322033898304, 61.224489795918366, 64.93506493506493, 64.93506493506493, 64.37768240343348, 65.21739130434783, 66.3716814159292, 66.96428571428571, 68.4931506849315, 64.93506493506493, 64.65517241379311, 65.21739130434783, 64.93506493506493, 64.1025641025641, 64.65517241379311, 64.93506493506493, 65.50218340611353, 64.37768240343348, 64.37768240343348, 64.37768240343348, 64.1025641025641, 63.829787234042556, 65.78947368421052, 62.24066390041494, 64.93506493506493, 65.50218340611353, 68.80733944954129, 68.4931506849315, 65.78947368421052, 64.37768240343348, 64.1025641025641, 62.76150627615063, 62.76150627615063, 63.829787234042556, 64.93506493506493, 65.93406593406593, 65.50218340611353, 64.65517241379311, 64.93506493506493, 64.93506493506493, 64.93506493506493, 65.21739130434783, 61.47540983606557, 61.98347107438016, 59.28853754940712, 60.0, 67.26457399103138, 75.37688442211055, 71.09004739336493, 71.09004739336493, 65.50218340611353, 65.21739130434783], 1], [[68.4931506849315, 67.26457399103138, 64.23982869379014, 63.29113924050633, 63.559322033898304, 64.93506493506493, 64.65517241379311, 64.37768240343348, 63.02521008403362, 62.5, 62.76150627615063, 63.829787234042556, 63.829787234042556, 63.829787234042556, 64.65517241379311, 67.26457399103138, 68.02721088435374, 61.98347107438016, 62.24066390041494, 62.24066390041494, 61.98347107438016, 60.72874493927125, 61.224489795918366, 61.72839506172839, 61.98347107438016, 61.98347107438016, 61.224489795918366, 60.72874493927125, 58.36575875486381, 59.05511811023622, 59.05511811023622, 62.76150627615063, 62.24066390041494, 61.224489795918366, 58.8235294117647, 57.47126436781609, 57.69230769230769, 57.47126436781609, 57.47126436781609, 58.13953488372093, 57.25190839694657, 57.034220532319395, 56.60377358490566, 56.60377358490566, 56.17977528089887, 55.97014925373134, 56.390977443609025, 56.60377358490566, 59.523809523809526, 58.8235294117647, 61.98347107438016, 58.36575875486381, 59.05511811023622, 60.97560975609756, 58.36575875486381, 55.762081784386616, 55.14705882352941, 54.151624548736464, 55.55555555555556, 55.55555555555556, 55.35055350553505, 55.14705882352941, 55.35055350553505, 55.14705882352941, 55.35055350553505, 55.14705882352941, 56.390977443609025, 58.59375, 58.8235294117647, 58.8235294117647, 54.34782608695652, 54.74452554744526, 53.57142857142857, 54.94505494505494, 54.34782608695652], 1], [[73.52941176470588, 77.31958762886597, 80.21390374331551, 76.53061224489795, 78.125, 76.92307692307692, 77.72020725388602, 76.53061224489795, 78.125, 77.72020725388602, 75.0, 75.0, 72.81553398058253, 73.52941176470588, 74.6268656716418, 78.125, 77.72020725388602, 77.31958762886597, 76.53061224489795, 76.92307692307692, 76.14213197969544, 76.92307692307692, 75.0, 75.37688442211055, 76.53061224489795, 73.89162561576354, 74.25742574257426, 75.75757575757575, 74.6268656716418, 74.25742574257426, 73.89162561576354, 74.25742574257426, 73.17073170731707, 71.42857142857143, 72.81553398058253, 73.52941176470588, 70.09345794392523, 66.3716814159292, 70.75471698113208, 71.42857142857143, 72.46376811594203, 73.89162561576354, 76.53061224489795, 73.89162561576354, 72.11538461538461, 70.09345794392523, 70.09345794392523, 69.76744186046511, 70.75471698113208, 69.76744186046511, 70.09345794392523, 69.44444444444444, 69.76744186046511, 70.75471698113208, 70.09345794392523, 70.4225352112676, 69.44444444444444, 68.4931506849315, 65.21739130434783, 65.78947368421052, 68.18181818181819, 70.4225352112676, 69.12442396313364, 67.56756756756756, 66.07929515418502, 65.78947368421052, 69.44444444444444, 71.09004739336493, 68.80733944954129, 69.12442396313364, 68.18181818181819, 67.87330316742081, 67.26457399103138, 66.66666666666667, 68.18181818181819, 68.18181818181819, 66.66666666666667, 66.07929515418502, 69.76744186046511, 65.21739130434783], 1], [[150.0, 148.5148514851485, 102.04081632653062, 150.0, 148.5148514851485, 145.63106796116506, 100.0, 104.8951048951049, 148.5148514851485, 137.61467889908258, 104.8951048951049, 105.63380281690141, 105.63380281690141, 104.8951048951049, 150.0, 150.0, 150.0, 148.5148514851485, 104.16666666666667, 132.7433628318584, 137.61467889908258, 139.53488372093022, 102.04081632653062, 100.67114093959732, 100.67114093959732, 121.95121951219512, 101.35135135135135, 101.35135135135135, 140.18691588785046, 110.29411764705883, 106.38297872340425, 105.63380281690141, 150.0, 150.0, 140.18691588785046, 147.05882352941177, 150.0, 151.5151515151515, 151.5151515151515, 151.5151515151515, 151.5151515151515, 137.61467889908258, 142.85714285714286, 150.0, 150.0, 149.2537313432836, 150.0, 150.0, 150.0, 150.0, 151.5151515151515, 150.0, 150.0, 150.0, 148.5148514851485, 150.0, 150.0, 150.0, 148.5148514851485, 141.50943396226415, 150.0, 148.5148514851485, 147.05882352941177, 137.61467889908258, 148.5148514851485, 150.0, 150.0, 149.2537313432836, 150.0, 150.0, 150.0, 141.50943396226415, 131.00436681222706, 104.8951048951049, 105.63380281690141, 104.8951048951049, 105.63380281690141, 138.88888888888889, 139.53488372093022, 100.67114093959732, 150.0, 131.57894736842104, 147.05882352941177, 150.0, 147.05882352941177], 1], [[102.73972602739725, 148.5148514851485, 148.5148514851485, 150.0, 144.23076923076923, 104.8951048951049, 102.73972602739725, 138.88888888888889, 148.5148514851485, 150.0, 148.5148514851485, 148.5148514851485, 128.2051282051282, 148.5148514851485, 145.63106796116506, 148.5148514851485, 150.0, 145.63106796116506, 145.63106796116506, 150.0, 105.63380281690141, 150.0, 148.5148514851485, 105.63380281690141, 142.85714285714286, 150.0, 147.05882352941177, 140.18691588785046, 140.18691588785046, 100.67114093959732, 148.5148514851485, 148.5148514851485, 148.5148514851485, 150.0, 148.5148514851485, 141.50943396226415, 148.5148514851485, 100.0, 148.5148514851485, 126.05042016806723, 100.67114093959732, 100.0, 115.38461538461539, 120.0, 140.18691588785046, 147.05882352941177, 148.5148514851485, 142.85714285714286, 148.5148514851485, 150.0, 140.18691588785046, 140.18691588785046, 142.85714285714286, 139.53488372093022, 150.0, 150.0, 150.0, 150.0, 150.0, 148.5148514851485, 147.05882352941177, 144.23076923076923, 148.5148514851485, 148.5148514851485, 150.0, 150.0, 150.0, 148.5148514851485, 150.0, 150.0, 150.0, 150.0, 150.0, 150.0, 150.0, 150.0, 150.0, 150.0, 109.48905109489051, 100.0, 148.5148514851485, 100.0, 100.67114093959732, 102.04081632653062, 142.85714285714286, 148.5148514851485, 100.0, 148.5148514851485, 150.0, 150.0, 150.0], 0], [[78.53403141361257, 76.92307692307692, 73.17073170731707, 73.89162561576354, 71.77033492822966, 72.46376811594203, 73.52941176470588, 73.17073170731707, 72.46376811594203, 71.77033492822966, 72.11538461538461, 72.46376811594203, 72.81553398058253, 73.17073170731707, 73.52941176470588, 73.17073170731707, 73.89162561576354, 72.46376811594203, 71.77033492822966, 72.46376811594203, 70.75471698113208, 71.09004739336493, 71.09004739336493, 71.09004739336493, 70.75471698113208, 70.75471698113208, 71.09004739336493, 71.42857142857143, 72.46376811594203, 71.09004739336493, 70.75471698113208, 70.4225352112676, 71.09004739336493, 68.80733944954129, 68.18181818181819, 68.4931506849315, 68.80733944954129, 68.4931506849315, 70.4225352112676, 68.4931506849315, 70.09345794392523, 70.4225352112676, 71.09004739336493, 72.11538461538461, 67.26457399103138, 67.26457399103138, 67.26457399103138, 68.18181818181819, 68.18181818181819, 67.56756756756756, 67.56756756756756, 67.56756756756756, 67.56756756756756, 67.87330316742081, 67.26457399103138, 66.96428571428571, 67.26457399103138, 66.07929515418502, 66.07929515418502, 67.87330316742081, 69.44444444444444, 67.26457399103138, 67.26457399103138, 66.96428571428571, 64.37768240343348, 65.78947368421052, 66.66666666666667, 64.93506493506493, 64.93506493506493, 65.78947368421052, 65.21739130434783, 64.93506493506493, 65.78947368421052, 67.56756756756756, 69.44444444444444, 70.58823529411765, 65.78947368421052, 67.41573033707866, 66.07929515418502, 67.56756756756756, 68.18181818181819, 67.26457399103138, 66.96428571428571, 67.26457399103138, 67.26457399103138, 65.78947368421052, 64.37768240343348, 64.93506493506493, 65.50218340611353, 65.78947368421052, 66.07929515418502, 66.07929515418502, 65.50218340611353, 66.07929515418502], 1], [[150.0, 111.94029850746269, 150.0, 150.0, 130.43478260869566, 110.29411764705883, 148.5148514851485, 148.5148514851485, 103.44827586206897, 104.8951048951049, 110.29411764705883, 148.5148514851485, 148.5148514851485, 150.0, 147.05882352941177, 148.5148514851485, 150.0, 150.0, 150.0, 150.0, 150.0, 128.2051282051282, 150.0, 147.05882352941177, 148.5148514851485, 150.0, 150.0, 150.0, 150.0, 150.0, 150.0, 147.05882352941177, 150.0, 150.0, 150.0, 150.0, 150.0, 150.0, 150.0, 148.5148514851485, 150.0, 150.0, 150.0, 148.5148514851485, 102.04081632653062, 150.0, 148.5148514851485, 150.0, 150.0, 150.0, 150.0, 150.0, 150.0, 150.0, 148.5148514851485, 148.5148514851485, 150.0, 150.0, 150.0, 147.7832512315271, 148.5148514851485, 151.5151515151515, 150.0, 104.8951048951049, 147.05882352941177, 147.05882352941177, 123.96694214876032, 148.5148514851485, 100.67114093959732, 75.0, 74.6268656716418, 75.0, 75.0, 100.0, 122.95081967213115, 150.0, 150.0, 148.5148514851485, 148.5148514851485, 148.5148514851485, 150.0, 150.0, 150.0, 148.5148514851485, 147.05882352941177, 142.85714285714286, 150.0, 150.0], 1], [[150.0, 150.0, 148.5148514851485, 150.0, 150.0, 148.5148514851485, 104.16666666666667, 103.44827586206897, 148.5148514851485, 148.5148514851485, 148.5148514851485, 150.0, 148.5148514851485, 148.5148514851485, 141.50943396226415, 150.0, 126.05042016806723, 100.0, 150.0, 101.69491525423729, 147.05882352941177, 148.5148514851485, 147.05882352941177, 150.0, 148.5148514851485, 148.5148514851485, 150.0, 150.0, 150.0, 148.5148514851485, 150.0, 150.0, 105.26315789473684, 104.16666666666667, 148.5148514851485, 147.05882352941177, 150.0, 148.5148514851485], 0], [[150.0, 144.23076923076923, 150.0, 150.0, 150.0, 150.0, 150.0, 150.0, 138.88888888888889, 105.26315789473684, 104.16666666666667, 115.38461538461539, 103.44827586206897, 104.8951048951049, 150.0, 147.05882352941177, 148.5148514851485, 150.0, 145.63106796116506, 103.44827586206897, 148.5148514851485, 142.85714285714286, 133.33333333333334, 100.0, 100.67114093959732, 101.01010101010101, 110.29411764705883, 100.67114093959732, 141.50943396226415, 145.63106796116506, 104.8951048951049, 100.67114093959732, 101.01010101010101, 100.67114093959732, 133.33333333333334, 101.35135135135135, 103.09278350515464, 104.52961672473867, 150.0, 150.0, 150.0, 150.0, 148.5148514851485, 150.0, 150.0, 150.0, 150.0, 150.0, 150.0, 150.0, 150.0, 150.0, 147.05882352941177, 148.5148514851485, 138.88888888888889, 148.5148514851485, 150.0, 150.0, 148.5148514851485, 101.01010101010101, 148.5148514851485, 150.0, 100.67114093959732, 101.69491525423729, 150.0, 150.0, 103.44827586206897, 100.67114093959732, 150.0, 150.0, 150.0, 150.0, 148.5148514851485, 150.0], 1], [[66.07929515418502, 66.07929515418502, 64.37768240343348, 57.47126436781609, 57.034220532319395, 56.60377358490566, 60.72874493927125, 61.72839506172839, 61.72839506172839, 62.5, 62.76150627615063, 61.224489795918366, 58.59375, 57.69230769230769, 60.483870967741936, 61.224489795918366, 59.28853754940712, 58.59375, 56.49717514124294, 54.94505494505494, 54.94505494505494, 56.60377358490566, 58.13953488372093, 58.59375, 59.05511811023622, 59.523809523809526, 58.13953488372093, 58.59375, 58.36575875486381, 59.171597633136095, 58.36575875486381, 58.8235294117647, 60.483870967741936, 63.29113924050633, 60.483870967741936, 56.60377358490566, 57.034220532319395, 57.034220532319395, 55.762081784386616, 55.65862708719852, 55.35055350553505, 54.74452554744526, 55.35055350553505, 54.54545454545455, 54.151624548736464, 53.9568345323741, 54.54545454545455, 54.151624548736464, 54.94505494505494, 54.94505494505494, 59.28853754940712, 61.98347107438016, 61.224489795918366, 56.390977443609025, 56.60377358490566, 56.60377358490566, 55.35055350553505, 55.97014925373134, 55.97014925373134, 55.35055350553505, 56.60377358490566, 56.60377358490566, 54.94505494505494, 53.763440860215056, 54.54545454545455, 53.380782918149464, 54.151624548736464, 54.151624548736464, 54.54545454545455, 54.94505494505494, 58.36575875486381, 57.915057915057915, 55.55555555555556, 54.94505494505494, 55.35055350553505, 55.762081784386616], 1], [[68.18181818181819, 66.96428571428571, 60.97560975609756, 58.8235294117647, 58.708414872798436, 58.36575875486381, 56.17977528089887, 58.36575875486381, 64.93506493506493, 64.65517241379311, 67.56756756756756, 63.29113924050633, 63.829787234042556, 60.24096385542169, 58.59375, 57.69230769230769, 57.47126436781609, 58.59375, 57.142857142857146, 56.60377358490566, 56.60377358490566, 54.74452554744526, 54.74452554744526, 56.60377358490566, 53.763440860215056, 57.47126436781609, 60.0, 57.69230769230769, 58.59375, 55.14705882352941, 53.9568345323741, 56.17977528089887, 55.762081784386616, 54.74452554744526, 53.9568345323741, 53.9568345323741, 53.9568345323741, 53.9568345323741, 53.9568345323741, 53.763440860215056, 52.083333333333336, 54.74452554744526, 51.02040816326531, 52.44755244755245, 52.083333333333336, 52.083333333333336, 51.19453924914676, 51.54639175257732, 51.54639175257732, 51.90311418685121, 51.90311418685121, 51.90311418685121, 52.26480836236934, 52.44755244755245, 52.26480836236934, 52.083333333333336, 55.14705882352941, 63.829787234042556, 55.55555555555556, 54.151624548736464, 55.762081784386616, 54.74452554744526, 57.25190839694657, 54.74452554744526, 56.390977443609025, 54.151624548736464, 53.003533568904594, 53.003533568904594, 53.57142857142857, 53.191489361702125, 53.191489361702125, 53.763440860215056, 54.151624548736464, 53.763440860215056, 54.34782608695652, 53.9568345323741, 55.55555555555556, 54.94505494505494, 56.390977443609025, 54.54545454545455, 53.57142857142857, 53.763440860215056, 53.57142857142857, 53.191489361702125, 53.57142857142857, 53.763440860215056, 54.151624548736464, 54.151624548736464], 1], [[150.0, 145.63106796116506, 83.79888268156425, 83.33333333333333, 76.53061224489795, 73.89162561576354, 73.17073170731707, 74.25742574257426, 75.37688442211055, 73.52941176470588, 75.0, 76.53061224489795, 75.37688442211055, 77.72020725388602, 78.94736842105263, 78.94736842105263, 81.52173913043478, 82.41758241758242, 83.33333333333333, 80.64516129032258, 84.26966292134831, 79.36507936507937, 79.36507936507937, 77.31958762886597, 79.36507936507937, 78.53403141361257, 94.9367088607595, 90.36144578313252, 90.9090909090909, 92.02453987730061, 90.9090909090909, 88.23529411764706, 83.79888268156425, 90.36144578313252, 87.71929824561404, 87.71929824561404, 81.52173913043478, 78.94736842105263, 81.08108108108108, 78.53403141361257, 78.53403141361257, 77.31958762886597, 78.94736842105263, 78.125, 86.70520231213872, 85.71428571428571, 79.7872340425532, 80.42895442359249, 81.9672131147541, 82.41758241758242, 83.33333333333333, 82.87292817679558, 81.9672131147541, 81.9672131147541, 84.26966292134831, 81.74386920980926, 84.98583569405099, 90.36144578313252, 90.9090909090909, 89.28571428571429, 89.82035928143712, 87.20930232558139, 87.71929824561404, 89.28571428571429, 89.82035928143712, 92.02453987730061, 89.28571428571429, 86.20689655172414, 78.94736842105263, 78.125, 79.7872340425532, 81.52173913043478, 80.21390374331551, 80.64516129032258, 82.41758241758242, 81.9672131147541, 84.26966292134831, 85.22727272727273, 88.23529411764706, 87.71929824561404, 78.94736842105263, 80.64516129032258, 82.87292817679558, 83.79888268156425, 89.82035928143712, 87.20930232558139, 88.23529411764706, 87.71929824561404, 86.20689655172414, 81.9672131147541, 80.21390374331551, 80.21390374331551, 79.7872340425532, 79.36507936507937, 81.52173913043478, 80.64516129032258, 77.31958762886597, 90.36144578313252, 107.9136690647482], 1], [[79.7872340425532, 69.76744186046511, 68.80733944954129, 68.80733944954129, 69.76744186046511, 73.17073170731707, 68.18181818181819, 68.4931506849315, 69.44444444444444, 71.42857142857143, 74.6268656716418, 74.25742574257426, 76.14213197969544, 78.53403141361257, 74.25742574257426, 74.6268656716418, 77.72020725388602, 78.125, 78.94736842105263, 74.25742574257426, 76.14213197969544, 77.12082262210797, 76.53061224489795, 92.5925925925926, 74.6268656716418, 71.42857142857143, 73.17073170731707, 73.17073170731707, 73.52941176470588, 73.89162561576354, 76.53061224489795, 75.75757575757575, 73.52941176470588, 71.77033492822966, 75.75757575757575, 75.75757575757575, 73.17073170731707, 81.30081300813008, 78.125, 78.94736842105263, 81.08108108108108, 80.64516129032258, 78.53403141361257, 81.52173913043478, 76.14213197969544, 70.4225352112676, 70.4225352112676, 70.75471698113208, 72.46376811594203, 73.17073170731707, 71.42857142857143, 71.42857142857143, 72.46376811594203, 69.12442396313364, 70.09345794392523, 72.28915662650603, 70.09345794392523, 76.53061224489795, 75.37688442211055, 75.56675062972292, 69.76744186046511, 72.11538461538461, 72.81553398058253, 69.76744186046511, 70.75471698113208, 71.77033492822966, 71.77033492822966, 71.77033492822966, 71.09004739336493, 71.09004739336493, 71.09004739336493, 70.4225352112676, 73.89162561576354, 73.89162561576354, 75.75757575757575, 73.52941176470588, 76.33587786259542, 75.0, 75.56675062972292], 1], [[70.75471698113208, 68.18181818181819, 67.87330316742081, 68.18181818181819, 69.76744186046511, 70.09345794392523, 67.26457399103138, 67.56756756756756, 65.78947368421052, 67.56756756756756, 68.80733944954129, 69.12442396313364, 69.12442396313364, 66.66666666666667, 68.18181818181819, 67.87330316742081, 67.56756756756756, 66.66666666666667, 68.4931506849315, 66.07929515418502, 64.37768240343348, 63.829787234042556, 63.559322033898304, 63.829787234042556, 64.93506493506493, 65.50218340611353, 66.3716814159292, 67.26457399103138, 67.56756756756756, 68.18181818181819, 68.80733944954129, 66.96428571428571, 68.18181818181819, 70.09345794392523, 69.12442396313364, 68.4931506849315, 67.26457399103138, 67.56756756756756, 67.87330316742081, 68.4931506849315, 68.4931506849315, 70.09345794392523, 70.75471698113208, 69.44444444444444, 65.21739130434783, 70.4225352112676, 66.3716814159292, 70.4225352112676, 71.09004739336493, 73.52941176470588, 73.52941176470588, 70.75471698113208, 71.09004739336493, 71.09004739336493, 72.11538461538461, 70.75471698113208, 70.09345794392523, 70.75471698113208, 70.75471698113208, 67.56756756756756, 67.56756756756756, 68.4931506849315, 67.56756756756756, 67.56756756756756, 67.87330316742081, 68.02721088435374, 68.18181818181819, 68.3371298405467, 68.80733944954129, 68.80733944954129, 69.12442396313364, 69.76744186046511, 68.18181818181819, 68.4931506849315, 68.80733944954129, 68.80733944954129, 70.4225352112676, 69.76744186046511, 69.76744186046511], 1], [[150.0, 118.11023622047244, 116.27906976744185, 148.5148514851485, 150.0, 150.0, 150.0, 150.0, 150.0, 142.85714285714286, 100.67114093959732, 147.05882352941177, 144.23076923076923, 117.1875, 100.67114093959732, 140.18691588785046, 115.38461538461539, 147.05882352941177, 150.0, 150.0, 150.0, 123.96694214876032, 113.63636363636364, 144.23076923076923, 140.18691588785046, 142.85714285714286, 117.1875, 138.88888888888889, 150.0, 121.95121951219512, 104.8951048951049, 104.8951048951049, 150.0, 148.5148514851485, 123.96694214876032, 115.38461538461539, 148.5148514851485, 148.5148514851485, 104.16666666666667, 101.35135135135135, 147.05882352941177, 145.63106796116506, 148.5148514851485, 148.5148514851485, 148.5148514851485, 147.05882352941177, 145.63106796116506, 147.05882352941177, 121.4574898785425, 148.5148514851485, 109.48905109489051, 150.0, 132.7433628318584, 147.05882352941177, 150.0, 104.8951048951049, 150.0, 150.0, 100.0, 104.16666666666667, 125.0, 148.5148514851485, 148.5148514851485, 148.5148514851485, 145.63106796116506, 150.0, 145.63106796116506, 147.05882352941177, 125.0, 150.0, 149.2537313432836, 148.5148514851485, 148.5148514851485, 148.5148514851485, 150.0, 150.0, 148.5148514851485, 138.88888888888889, 150.0, 150.0, 150.0, 150.0, 150.0, 150.0, 150.0, 100.67114093959732, 150.0, 151.5151515151515, 151.5151515151515, 150.0, 150.0, 148.5148514851485], 1], [[76.72634271099744, 71.77033492822966, 64.93506493506493, 61.47540983606557, 60.97560975609756, 60.483870967741936, 60.24096385542169, 58.13953488372093, 58.36575875486381, 58.36575875486381, 58.13953488372093, 60.0, 61.224489795918366, 66.3716814159292, 68.80733944954129, 62.24066390041494, 59.28853754940712, 58.59375, 59.28853754940712, 59.642147117296226, 59.523809523809526, 59.523809523809526, 58.36575875486381, 59.523809523809526, 59.523809523809526, 60.0, 58.8235294117647, 56.60377358490566, 57.034220532319395, 55.55555555555556, 56.17977528089887, 54.74452554744526, 55.14705882352941, 54.74452554744526, 54.74452554744526, 54.94505494505494, 55.35055350553505, 55.35055350553505, 55.35055350553505, 65.21739130434783, 63.29113924050633, 70.4225352112676, 150.0, 150.0, 150.0, 140.18691588785046, 150.0, 150.0, 147.05882352941177, 145.63106796116506, 101.35135135135135, 150.0, 148.5148514851485, 148.5148514851485, 148.5148514851485, 150.0, 150.0, 150.0, 148.5148514851485, 150.0, 148.5148514851485, 150.0, 150.0, 119.04761904761905, 147.05882352941177, 111.52416356877323, 111.94029850746269, 116.27906976744185], 1], [[86.70520231213872, 73.89162561576354, 71.42857142857143, 65.50218340611353, 64.1025641025641, 64.65517241379311, 63.69426751592356, 63.559322033898304, 63.559322033898304, 63.559322033898304, 63.29113924050633, 63.559322033898304, 64.1025641025641, 64.1025641025641, 63.29113924050633, 63.02521008403362, 64.65517241379311, 67.56756756756756, 66.66666666666667, 66.07929515418502, 64.65517241379311, 66.3716814159292, 66.3716814159292, 61.47540983606557, 61.224489795918366, 62.63048016701461, 62.5, 63.829787234042556, 61.72839506172839, 62.11180124223603, 63.02521008403362, 61.72839506172839, 60.24096385542169, 60.483870967741936, 59.05511811023622, 57.58157389635317, 57.034220532319395, 59.28853754940712, 59.7609561752988, 60.24096385542169, 59.523809523809526, 61.47540983606557, 60.72874493927125, 63.29113924050633, 58.59375, 58.8235294117647, 60.97560975609756, 58.8235294117647, 55.762081784386616, 55.248618784530386, 55.55555555555556, 57.69230769230769, 57.034220532319395, 57.69230769230769, 57.034220532319395, 56.390977443609025, 56.390977443609025, 56.81818181818182, 56.81818181818182, 58.59375, 58.59375, 58.8235294117647, 57.47126436781609, 56.390977443609025, 57.47126436781609, 57.034220532319395, 56.28517823639775, 61.72839506172839, 60.24096385542169, 57.69230769230769, 56.074766355140184, 150.0], 1], [[150.0, 101.35135135135135, 105.63380281690141, 150.0, 150.0, 150.0, 150.0, 118.11023622047244, 117.6470588235294, 100.67114093959732, 101.35135135135135, 116.27906976744185, 101.35135135135135, 100.67114093959732, 145.63106796116506, 151.5151515151515, 150.0, 148.5148514851485, 120.0, 150.0, 123.96694214876032, 148.5148514851485, 100.67114093959732, 101.35135135135135, 100.67114093959732, 125.0, 147.05882352941177, 148.5148514851485, 140.8450704225352, 140.18691588785046, 142.85714285714286, 150.0, 141.50943396226415, 150.0, 102.73972602739725, 126.05042016806723, 150.0], 0], [[147.05882352941177, 148.5148514851485, 148.5148514851485, 148.5148514851485, 148.5148514851485, 150.0, 150.0, 150.0, 150.0, 150.0, 150.0, 148.5148514851485, 100.67114093959732, 100.67114093959732, 147.05882352941177, 150.0, 148.5148514851485, 141.50943396226415, 150.0, 150.0, 148.5148514851485, 150.0, 150.0, 150.0, 116.73151750972762, 148.5148514851485, 148.5148514851485, 150.0, 142.85714285714286, 150.0, 148.5148514851485, 150.0, 150.0, 148.5148514851485, 148.5148514851485, 150.0, 99.33774834437087, 100.67114093959732, 148.5148514851485, 148.5148514851485, 150.0, 148.5148514851485, 150.0, 148.5148514851485, 148.5148514851485, 148.5148514851485, 150.0, 150.0, 150.0, 150.0, 150.0, 150.0, 150.0, 150.0, 150.0, 148.5148514851485, 148.5148514851485, 150.0, 148.5148514851485, 148.5148514851485, 150.0, 150.0, 150.0, 148.5148514851485, 148.5148514851485, 147.05882352941177, 148.5148514851485, 100.67114093959732, 148.5148514851485, 148.5148514851485, 150.0, 148.5148514851485, 150.0, 150.0, 148.5148514851485, 150.0, 150.0, 150.0, 150.0, 150.0, 150.0, 150.0, 150.0, 151.5151515151515, 148.5148514851485, 150.0, 142.85714285714286, 141.50943396226415, 150.0, 148.5148514851485, 148.5148514851485, 147.05882352941177, 148.5148514851485, 150.0, 151.5151515151515, 150.0, 145.63106796116506, 140.18691588785046, 101.01010101010101, 138.88888888888889, 100.67114093959732, 139.53488372093022, 150.0, 148.5148514851485, 148.5148514851485, 150.0], 0], [[150.0, 148.5148514851485, 148.5148514851485, 148.5148514851485, 148.5148514851485, 150.0, 100.0, 100.67114093959732, 109.0909090909091, 148.5148514851485, 150.0, 100.0, 147.05882352941177, 145.63106796116506, 148.5148514851485, 148.5148514851485, 101.35135135135135, 150.0, 150.0, 115.38461538461539, 150.0, 101.35135135135135, 130.43478260869566, 138.88888888888889, 148.5148514851485, 148.5148514851485, 148.5148514851485, 101.35135135135135, 148.5148514851485, 148.5148514851485, 150.0, 150.0, 150.0, 149.2537313432836, 100.0, 140.18691588785046, 147.05882352941177, 104.8951048951049, 140.18691588785046, 138.88888888888889, 105.63380281690141, 101.35135135135135, 105.63380281690141, 113.63636363636364, 100.0, 105.63380281690141, 141.50943396226415, 148.5148514851485, 148.5148514851485, 150.0, 150.0, 150.0, 150.0, 150.0, 150.0, 150.0, 148.5148514851485, 150.0, 140.8450704225352, 148.5148514851485, 147.05882352941177, 148.5148514851485, 148.5148514851485, 150.0], 1], [[86.70520231213872, 85.71428571428571, 85.71428571428571, 84.26966292134831, 82.87292817679558, 85.22727272727273, 83.79888268156425, 80.21390374331551, 76.14213197969544, 73.89162561576354, 72.81553398058253, 72.46376811594203, 72.46376811594203, 72.11538461538461, 72.11538461538461, 68.80733944954129, 67.56756756756756, 67.87330316742081, 70.92198581560284, 72.81553398058253, 69.76744186046511, 71.42857142857143, 72.11538461538461, 70.75471698113208, 73.17073170731707, 70.75471698113208, 70.92198581560284, 71.09004739336493, 72.11538461538461, 72.46376811594203, 72.81553398058253, 73.52941176470588, 73.89162561576354, 71.42857142857143, 71.77033492822966, 73.52941176470588, 71.77033492822966, 70.09345794392523, 70.09345794392523, 74.6268656716418, 74.6268656716418, 70.4225352112676, 71.42857142857143, 69.44444444444444, 68.80733944954129, 66.07929515418502, 66.07929515418502, 65.78947368421052, 66.3716814159292, 65.21739130434783, 64.93506493506493, 66.3716814159292, 66.66666666666667, 63.829787234042556, 66.3716814159292, 147.05882352941177, 123.96694214876032, 148.5148514851485, 148.5148514851485, 143.54066985645932, 147.05882352941177, 148.5148514851485, 148.5148514851485, 147.05882352941177, 145.63106796116506, 139.53488372093022, 142.85714285714286, 110.29411764705883, 111.94029850746269, 128.2051282051282, 100.0, 111.94029850746269, 131.57894736842104, 111.94029850746269, 102.04081632653062, 141.50943396226415, 100.67114093959732, 98.6842105263158, 100.0, 127.65957446808511, 147.05882352941177, 148.5148514851485, 147.05882352941177, 114.50381679389314, 102.04081632653062, 148.5148514851485, 142.18009478672985, 100.0, 100.67114093959732, 148.5148514851485], 1], [[98.03921568627452, 78.125, 76.92307692307692, 78.94736842105263, 78.53403141361257, 75.75757575757575, 75.75757575757575, 76.53061224489795, 73.52941176470588, 70.75471698113208, 71.77033492822966, 71.09004739336493, 67.87330316742081, 66.96428571428571, 65.50218340611353, 65.78947368421052, 66.3716814159292, 65.50218340611353, 64.93506493506493, 65.21739130434783, 66.96428571428571, 65.78947368421052, 66.07929515418502, 64.65517241379311, 61.72839506172839, 63.559322033898304, 63.02521008403362, 61.72839506172839, 60.60606060606061, 61.47540983606557, 61.98347107438016, 63.02521008403362, 63.02521008403362, 71.42857142857143, 74.25742574257426, 71.77033492822966, 72.81553398058253, 73.89162561576354, 74.6268656716418, 75.75757575757575, 75.75757575757575, 75.0, 73.52941176470588, 66.3716814159292, 67.26457399103138, 66.66666666666667, 66.96428571428571, 67.56756756756756, 64.65517241379311, 64.37768240343348, 65.50218340611353, 65.50218340611353, 66.07929515418502, 62.24066390041494, 60.483870967741936, 63.02521008403362, 64.65517241379311, 64.65517241379311, 75.0, 72.81553398058253, 63.29113924050633, 66.3716814159292, 71.94244604316546, 73.52941176470588, 67.26457399103138, 65.78947368421052, 65.21739130434783, 65.50218340611353, 69.12442396313364, 75.56675062972292, 75.75757575757575, 70.09345794392523, 68.18181818181819, 72.46376811594203, 70.09345794392523], 1], [[97.40259740259741, 95.54140127388536, 93.75, 90.36144578313252, 92.5925925925926, 92.02453987730061, 93.16770186335404, 92.5925925925926, 93.16770186335404, 93.45794392523365, 94.33962264150944, 94.33962264150944, 85.71428571428571, 89.28571428571429, 89.28571428571429, 85.71428571428571, 87.71929824561404, 85.71428571428571, 86.20689655172414, 85.71428571428571, 85.22727272727273, 83.79888268156425, 82.87292817679558, 81.9672131147541, 81.08108108108108, 81.52173913043478, 81.9672131147541, 81.9672131147541, 79.7872340425532, 81.08108108108108, 81.08108108108108, 81.52173913043478, 81.08108108108108, 81.08108108108108, 81.08108108108108, 77.12082262210797, 73.17073170731707, 75.37688442211055, 71.42857142857143, 72.11538461538461, 72.46376811594203, 72.81553398058253, 73.52941176470588, 73.52941176470588, 72.11538461538461, 71.94244604316546, 71.77033492822966, 72.46376811594203, 69.76744186046511, 69.76744186046511, 70.09345794392523, 70.75471698113208, 68.18181818181819, 67.26457399103138, 66.96428571428571, 66.96428571428571, 66.96428571428571, 66.66666666666667, 67.87330316742081, 66.3716814159292, 66.07929515418502, 67.26457399103138, 67.87330316742081, 68.18181818181819, 67.26457399103138, 66.96428571428571, 66.07929515418502, 66.3716814159292, 66.66666666666667, 66.96428571428571, 67.56756756756756, 67.87330316742081, 67.56756756756756, 67.26457399103138, 65.21739130434783, 67.56756756756756, 64.65517241379311, 66.07929515418502, 66.07929515418502, 67.56756756756756, 63.559322033898304, 63.02521008403362, 65.78947368421052, 64.37768240343348, 64.37768240343348], 1], [[148.5148514851485, 100.67114093959732, 115.38461538461539, 148.5148514851485, 148.5148514851485, 148.5148514851485, 147.05882352941177, 147.05882352941177, 115.38461538461539, 144.23076923076923, 101.35135135135135, 148.5148514851485, 148.5148514851485, 100.67114093959732, 100.0, 103.44827586206897, 104.8951048951049, 148.5148514851485, 100.0, 87.71929824561404, 75.75757575757575, 150.0, 150.0, 150.0, 150.0, 100.0, 76.14213197969544, 75.75757575757575, 76.14213197969544, 77.72020725388602, 83.33333333333333, 83.33333333333333, 81.52173913043478, 80.64516129032258, 79.7872340425532, 78.53403141361257, 75.0, 72.11538461538461, 71.77033492822966, 71.42857142857143, 71.09004739336493, 72.81553398058253, 